5.01500 823.000
5.03200 720.000
5.04900 970.000
5.06600 945.000
5.08300 735.000
5.10000 1067.000
5.11700 906.000
5.13400 928.000
5.15100 804.000
5.16800 839.000
5.18500 936.000
5.20200 865.000
5.21900 945.000
5.23600 967.000
5.25300 866.000
5.27000 914.000
5.28700 880.000
5.30400 768.000
5.32100 762.000
5.33800 845.000
5.35500 896.000
5.37200 871.000
5.38900 827.000
5.40600 794.000
5.42300 900.000
5.44000 853.000
5.45700 852.000
5.47400 904.000
5.49100 862.000
5.50800 868.000
5.52500 827.000
5.54200 823.000
5.55900 886.000
5.57600 848.000
5.59300 861.000
5.61000 901.000
5.62700 798.000
5.64400 802.000
5.66100 795.000
5.67800 792.000
5.69500 766.000
5.71200 844.000
5.72900 783.000
5.74600 775.000
5.76300 809.000
5.78000 840.000
5.79700 799.000
5.81400 852.000
5.83100 776.000
5.84800 790.000
5.86500 844.000
5.88200 856.000
5.89900 855.000
5.91600 771.000
5.93300 670.000
5.95000 838.000
5.96700 876.000
5.98400 772.000
6.00100 600.000
6.01800 694.000
6.03500 702.000
6.05200 753.000
6.06900 732.000
6.08600 766.000
6.10300 614.000
6.12000 699.000
6.13700 779.000
6.15400 583.000
6.17100 704.000
6.18800 742.000
6.20500 718.000
6.22200 793.000
6.23900 789.000
6.25600 798.000
6.27300 751.000
6.29000 670.000
6.30700 749.000
6.32400 699.000
6.34100 668.000
6.35800 722.000
6.37500 674.000
6.39200 658.000
6.40900 641.000
6.42600 668.000
6.44300 651.000
6.46000 648.000
6.47700 720.000
6.49400 732.000
6.51100 653.000
6.52800 679.000
6.54500 681.000
6.56200 716.000
6.57900 674.000
6.59600 672.000
6.61300 618.000
6.63000 602.000
6.64700 736.000
6.66400 729.000
6.68100 762.000
6.69800 733.000
6.71500 708.000
6.73200 531.000
6.74900 708.000
6.76600 692.000
6.78300 615.000
6.80000 646.000
6.81700 638.000
6.83400 627.000
6.85100 581.000
6.86800 833.000
6.88500 670.000
6.90200 641.000
6.91900 704.000
6.93600 746.000
6.95300 652.000
6.97000 750.000
6.98700 653.000
7.00400 598.000
7.02100 665.000
7.03800 548.000
7.05500 697.000
7.07200 640.000
7.08900 650.000
7.10600 580.000
7.12300 537.000
7.14000 610.000
7.15700 624.000
7.17400 594.000
7.19100 626.000
7.20800 674.000
7.22500 693.000
7.24200 647.000
7.25900 585.000
7.27600 621.000
7.29300 604.000
7.31000 635.000
7.32700 589.000
7.34400 630.000
7.36100 587.000
7.37800 550.000
7.39500 544.000
7.41200 551.000
7.42900 581.000
7.44600 542.000
7.46300 559.000
7.48000 597.000
7.49700 525.000
7.51400 582.000
7.53100 653.000
7.54800 592.000
7.56500 530.000
7.58200 528.000
7.59900 544.000
7.61600 514.000
7.63300 526.000
7.65000 549.000
7.66700 560.000
7.68400 589.000
7.70100 567.000
7.71800 554.000
7.73500 567.000
7.75200 570.000
7.76900 574.000
7.78600 584.000
7.80300 564.000
7.82000 543.000
7.83700 513.000
7.85400 573.000
7.87100 635.000
7.88800 539.000
7.90500 546.000
7.92200 592.000
7.93900 440.000
7.95600 674.000
7.97300 614.000
7.99000 541.000
8.00700 518.000
8.02400 559.000
8.04100 499.000
8.05800 548.000
8.07500 657.000
8.09200 616.000
8.10900 536.000
8.12600 596.000
8.14300 489.000
8.16000 585.000
8.17700 529.000
8.19400 498.000
8.21100 600.000
8.22800 584.000
8.24500 646.000
8.26200 582.000
8.27900 525.000
8.29600 504.000
8.31300 512.000
8.33000 510.000
8.34700 564.000
8.36400 541.000
8.38100 508.000
8.39800 551.000
8.41500 536.000
8.43200 523.000
8.44900 479.000
8.46600 472.000
8.48300 524.000
8.50000 520.000
8.51700 497.000
8.53400 440.000
8.55100 437.000
8.56800 441.000
8.58500 438.000
8.60200 560.000
8.61900 514.000
8.63600 464.000
8.65300 501.000
8.67000 492.000
8.68700 473.000
8.70400 564.000
8.72100 451.000
8.73800 420.000
8.75500 493.000
8.77200 527.000
8.78900 448.000
8.80600 454.000
8.82300 448.000
8.84000 407.000
8.85700 451.000
8.87400 405.000
8.89100 435.000
8.90800 581.000
8.92500 466.000
8.94200 446.000
8.95900 456.000
8.97600 516.000
8.99300 585.000
9.01000 409.000
9.02700 392.000
9.04400 435.000
9.06100 477.000
9.07800 474.000
9.09500 460.000
9.11200 460.000
9.12900 449.000
9.14600 504.000
9.16300 497.000
9.18000 444.000
9.19700 366.000
9.21400 391.000
9.23100 410.000
9.24800 486.000
9.26500 468.000
9.28200 459.000
9.29900 391.000
9.31600 419.000
9.33300 498.000
9.35000 522.000
9.36700 472.000
9.38400 462.000
9.40100 485.000
9.41800 443.000
9.43500 418.000
9.45200 407.000
9.46900 399.000
9.48600 428.000
9.50300 422.000
9.52000 454.000
9.53700 452.000
9.55400 401.000
9.57100 472.000
9.58800 486.000
9.60500 515.000
9.62200 400.000
9.63900 411.000
9.65600 457.000
9.67300 433.000
9.69000 436.000
9.70700 429.000
9.72400 433.000
9.74100 359.000
9.75800 453.000
9.77500 411.000
9.79200 368.000
9.80900 435.000
9.82600 423.000
9.84300 438.000
9.86000 398.000
9.87700 412.000
9.89400 413.000
9.91100 488.000
9.92800 431.000
9.94500 415.000
9.96200 397.000
9.97900 435.000
9.99600 466.000
10.01300 457.000
10.03000 423.000
10.04700 477.000
10.06400 423.000
10.08100 411.000
10.09800 426.000
10.11500 346.000
10.13200 372.000
10.14900 398.000
10.16600 392.000
10.18300 381.000
10.20000 407.000
10.21700 408.000
10.23400 404.000
10.25100 406.000
10.26800 412.000
10.28500 415.000
10.30200 416.000
10.31900 408.000
10.33600 393.000
10.35300 419.000
10.37000 514.000
10.38700 466.000
10.40400 376.000
10.42100 401.000
10.43800 382.000
10.45500 373.000
10.47200 416.000
10.48900 448.000
10.50600 400.000
10.52300 416.000
10.54000 426.000
10.55700 390.000
10.57400 354.000
10.59100 365.000
10.60800 361.000
10.62500 356.000
10.64200 367.000
10.65900 366.000
10.67600 331.000
10.69300 340.000
10.71000 385.000
10.72700 362.000
10.74400 365.000
10.76100 381.000
10.77800 399.000
10.79500 374.000
10.81200 429.000
10.82900 431.000
10.84600 311.000
10.86300 384.000
10.88000 317.000
10.89700 412.000
10.91400 366.000
10.93100 496.000
10.94800 386.000
10.96500 357.000
10.98200 387.000
10.99900 408.000
11.01600 369.000
11.03300 320.000
11.05000 372.000
11.06700 404.000
11.08400 353.000
11.10100 341.000
11.11800 361.000
11.13500 378.000
11.15200 350.000
11.16900 351.000
11.18600 363.000
11.20300 309.000
11.22000 343.000
11.23700 446.000
11.25400 459.000
11.27100 392.000
11.28800 392.000
11.30500 339.000
11.32200 310.000
11.33900 337.000
11.35600 391.000
11.37300 387.000
11.39000 377.000
11.40700 382.000
11.42400 381.000
11.44100 399.000
11.45800 318.000
11.47500 292.000
11.49200 361.000
11.50900 341.000
11.52600 329.000
11.54300 355.000
11.56000 367.000
11.57700 372.000
11.59400 322.000
11.61100 345.000
11.62800 364.000
11.64500 357.000
11.66200 358.000
11.67900 342.000
11.69600 321.000
11.71300 343.000
11.73000 318.000
11.74700 425.000
11.76400 323.000
11.78100 320.000
11.79800 377.000
11.81500 334.000
11.83200 356.000
11.84900 280.000
11.86600 330.000
11.88300 320.000
11.90000 339.000
11.91700 280.000
11.93400 399.000
11.95100 395.000
11.96800 331.000
11.98500 349.000
12.00200 316.000
12.01900 369.000
12.03600 295.000
12.05300 334.000
12.07000 314.000
12.08700 335.000
12.10400 270.000
12.12100 285.000
12.13800 348.000
12.15500 376.000
12.17200 333.000
12.18900 291.000
12.20600 321.000
12.22300 363.000
12.24000 358.000
12.25700 339.000
12.27400 388.000
12.29100 341.000
12.30800 331.000
12.32500 309.000
12.34200 306.000
12.35900 345.000
12.37600 329.000
12.39300 307.000
12.41000 298.000
12.42700 337.000
12.44400 324.000
12.46100 268.000
12.47800 272.000
12.49500 278.000
12.51200 323.000
12.52900 334.000
12.54600 317.000
12.56300 311.000
12.58000 294.000
12.59700 316.000
12.61400 273.000
12.63100 330.000
12.64800 334.000
12.66500 280.000
12.68200 305.000
12.69900 330.000
12.71600 289.000
12.73300 318.000
12.75000 311.000
12.76700 292.000
12.78400 303.000
12.80100 311.000
12.81800 318.000
12.83500 265.000
12.85200 313.000
12.86900 296.000
12.88600 284.000
12.90300 357.000
12.92000 305.000
12.93700 288.000
12.95400 325.000
12.97100 301.000
12.98800 266.000
13.00500 263.000
13.02200 315.000
13.03900 276.000
13.05600 280.000
13.07300 316.000
13.09000 315.000
13.10700 265.000
13.12400 283.000
13.14100 357.000
13.15800 316.000
13.17500 288.000
13.19200 312.000
13.20900 300.000
13.22600 257.000
13.24300 282.000
13.26000 275.000
13.27700 273.000
13.29400 234.000
13.31100 277.000
13.32800 331.000
13.34500 318.000
13.36200 322.000
13.37900 295.000
13.39600 268.000
13.41300 297.000
13.43000 310.000
13.44700 291.000
13.46400 266.000
13.48100 300.000
13.49800 266.000
13.51500 237.000
13.53200 232.000
13.54900 285.000
13.56600 315.000
13.58300 265.000
13.60000 290.000
13.61700 237.000
13.63400 279.000
13.65100 267.000
13.66800 299.000
13.68500 275.000
13.70200 273.000
13.71900 238.000
13.73600 258.000
13.75300 302.000
13.77000 286.000
13.78700 337.000
13.80400 257.000
13.82100 317.000
13.83800 269.000
13.85500 295.000
13.87200 281.000
13.88900 297.000
13.90600 275.000
13.92300 407.000
13.94000 332.000
13.95700 257.000
13.97400 276.000
13.99100 254.000
14.00800 271.000
14.02500 274.000
14.04200 301.000
14.05900 284.000
14.07600 286.000
14.09300 248.000
14.11000 269.000
14.12700 294.000
14.14400 329.000
14.16100 304.000
14.17800 284.000
14.19500 330.000
14.21200 379.000
14.22900 376.000
14.24600 373.000
14.26300 410.000
14.28000 465.000
14.29700 515.000
14.31400 645.000
14.33100 752.000
14.34800 736.000
14.36500 717.000
14.38200 786.000
14.39900 782.000
14.41600 720.000
14.43300 622.000
14.45000 524.000
14.46700 441.000
14.48400 383.000
14.50100 347.000
14.51800 326.000
14.53500 319.000
14.55200 292.000
14.56900 271.000
14.58600 238.000
14.60300 245.000
14.62000 283.000
14.63700 257.000
14.65400 236.000
14.67100 268.000
14.68800 256.000
14.70500 288.000
14.72200 272.000
14.73900 271.000
14.75600 277.000
14.77300 277.000
14.79000 277.000
14.80700 289.000
14.82400 254.000
14.84100 237.000
14.85800 250.000
14.87500 297.000
14.89200 263.000
14.90900 292.000
14.92600 253.000
14.94300 235.000
14.96000 261.000
14.97700 261.000
14.99400 243.000
15.01100 258.000
15.02800 275.000
15.04500 241.000
15.06200 237.000
15.07900 219.000
15.09600 238.000
15.11300 237.000
15.13000 221.000
15.14700 208.000
15.16400 193.000
15.18100 214.000
15.19800 229.000
15.21500 238.000
15.23200 262.000
15.24900 295.000
15.26600 292.000
15.28300 272.000
15.30000 268.000
15.31700 260.000
15.33400 275.000
15.35100 270.000
15.36800 238.000
15.38500 213.000
15.40200 228.000
15.41900 241.000
15.43600 258.000
15.45300 260.000
15.47000 234.000
15.48700 215.000
15.50400 211.000
15.52100 245.000
15.53800 254.000
15.55500 233.000
15.57200 217.000
15.58900 266.000
15.60600 239.000
15.62300 203.000
15.64000 231.000
15.65700 260.000
15.67400 274.000
15.69100 263.000
15.70800 226.000
15.72500 267.000
15.74200 253.000
15.75900 225.000
15.77600 254.000
15.79300 212.000
15.81000 263.000
15.82700 265.000
15.84400 225.000
15.86100 250.000
15.87800 278.000
15.89500 189.000
15.91200 206.000
15.92900 216.000
15.94600 258.000
15.96300 219.000
15.98000 204.000
15.99700 263.000
16.01400 239.000
16.03100 245.000
16.04800 241.000
16.06500 198.000
16.08200 201.000
16.09900 211.000
16.11600 218.000
16.13300 223.000
16.15000 220.000
16.16700 228.000
16.18400 249.000
16.20100 232.000
16.21800 208.000
16.23500 209.000
16.25200 194.000
16.26900 196.000
16.28600 230.000
16.30300 217.000
16.32000 230.000
16.33700 227.000
16.35400 208.000
16.37100 238.000
16.38800 225.000
16.40500 200.000
16.42200 230.000
16.43900 236.000
16.45600 240.000
16.47300 277.000
16.49000 265.000
16.50700 213.000
16.52400 208.000
16.54100 213.000
16.55800 257.000
16.57500 251.000
16.59200 195.000
16.60900 216.000
16.62600 233.000
16.64300 187.000
16.66000 220.000
16.67700 213.000
16.69400 203.000
16.71100 235.000
16.72800 203.000
16.74500 175.000
16.76200 181.000
16.77900 217.000
16.79600 190.000
16.81300 223.000
16.83000 231.000
16.84700 176.000
16.86400 243.000
16.88100 246.000
16.89800 258.000
16.91500 235.000
16.93200 216.000
16.94900 194.000
16.96600 207.000
16.98300 161.000
17.00000 200.000
17.01700 195.000
17.03400 207.000
17.05100 222.000
17.06800 240.000
17.08500 184.000
17.10200 222.000
17.11900 176.000
17.13600 185.000
17.15300 198.000
17.17000 185.000
17.18700 202.000
17.20400 209.000
17.22100 211.000
17.23800 215.000
17.25500 191.000
17.27200 189.000
17.28900 196.000
17.30600 195.000
17.32300 216.000
17.34000 218.000
17.35700 198.000
17.37400 194.000
17.39100 191.000
17.40800 186.000
17.42500 189.000
17.44200 199.000
17.45900 205.000
17.47600 210.000
17.49300 227.000
17.51000 228.000
17.52700 241.000
17.54400 235.000
17.56100 220.000
17.57800 174.000
17.59500 181.000
17.61200 201.000
17.62900 180.000
17.64600 230.000
17.66300 212.000
17.68000 157.000
17.69700 186.000
17.71400 195.000
17.73100 191.000
17.74800 193.000
17.76500 232.000
17.78200 215.000
17.79900 249.000
17.81600 224.000
17.83300 189.000
17.85000 196.000
17.86700 222.000
17.88400 199.000
17.90100 196.000
17.91800 190.000
17.93500 224.000
17.95200 211.000
17.96900 222.000
17.98600 223.000
18.00300 187.000
18.02000 215.000
18.03700 205.000
18.05400 186.000
18.07100 178.000
18.08800 187.000
18.10500 238.000
18.12200 228.000
18.13900 184.000
18.15600 186.000
18.17300 204.000
18.19000 191.000
18.20700 190.000
18.22400 202.000
18.24100 219.000
18.25800 183.000
18.27500 177.000
18.29200 179.000
18.30900 179.000
18.32600 155.000
18.34300 148.000
18.36000 170.000
18.37700 180.000
18.39400 177.000
18.41100 164.000
18.42800 176.000
18.44500 189.000
18.46200 163.000
18.47900 193.000
18.49600 208.000
18.51300 223.000
18.53000 204.000
18.54700 191.000
18.56400 182.000
18.58100 165.000
18.59800 196.000
18.61500 192.000
18.63200 167.000
18.64900 170.000
18.66600 209.000
18.68300 177.000
18.70000 170.000
18.71700 177.000
18.73400 253.000
18.75100 186.000
18.76800 145.000
18.78500 177.000
18.80200 169.000
18.81900 144.000
18.83600 170.000
18.85300 132.000
18.87000 160.000
18.88700 204.000
18.90400 176.000
18.92100 165.000
18.93800 197.000
18.95500 210.000
18.97200 192.000
18.98900 199.000
19.00600 209.000
19.02300 187.000
19.04000 177.000
19.05700 206.000
19.07400 182.000
19.09100 221.000
19.10800 235.000
19.12500 248.000
19.14200 259.000
19.15900 337.000
19.17600 398.000
19.19300 454.000
19.21000 458.000
19.22700 446.000
19.24400 492.000
19.26100 461.000
19.27800 420.000
19.29500 367.000
19.31200 278.000
19.32900 247.000
19.34600 231.000
19.36300 202.000
19.38000 187.000
19.39700 155.000
19.41400 171.000
19.43100 201.000
19.44800 191.000
19.46500 187.000
19.48200 179.000
19.49900 168.000
19.51600 191.000
19.53300 185.000
19.55000 157.000
19.56700 207.000
19.58400 166.000
19.60100 171.000
19.61800 177.000
19.63500 181.000
19.65200 188.000
19.66900 187.000
19.68600 173.000
19.70300 183.000
19.72000 186.000
19.73700 207.000
19.75400 153.000
19.77100 193.000
19.78800 197.000
19.80500 168.000
19.82200 179.000
19.83900 168.000
19.85600 177.000
19.87300 169.000
19.89000 147.000
19.90700 180.000
19.92400 189.000
19.94100 191.000
19.95800 150.000
19.97500 176.000
19.99200 184.000
20.00900 178.000
20.02600 145.000
20.04300 139.000
20.06000 151.000
20.07700 175.000
20.09400 173.000
20.11100 132.000
20.12800 156.000
20.14500 165.000
20.16200 172.000
20.17900 209.000
20.19600 199.000
20.21300 178.000
20.23000 198.000
20.24700 240.000
20.26400 275.000
20.28100 313.000
20.29800 352.000
20.31500 430.000
20.33200 507.000
20.34900 542.000
20.36600 621.000
20.38300 679.000
20.40000 750.000
20.41700 712.000
20.43400 613.000
20.45100 453.000
20.46800 329.000
20.48500 295.000
20.50200 250.000
20.51900 219.000
20.53600 199.000
20.55300 191.000
20.57000 201.000
20.58700 185.000
20.60400 180.000
20.62100 178.000
20.63800 165.000
20.65500 224.000
20.67200 146.000
20.68900 157.000
20.70600 170.000
20.72300 154.000
20.74000 167.000
20.75700 214.000
20.77400 220.000
20.79100 169.000
20.80800 149.000
20.82500 167.000
20.84200 194.000
20.85900 180.000
20.87600 157.000
20.89300 183.000
20.91000 160.000
20.92700 176.000
20.94400 172.000
20.96100 176.000
20.97800 140.000
20.99500 153.000
21.01200 146.000
21.02900 155.000
21.04600 158.000
21.06300 154.000
21.08000 124.000
21.09700 156.000
21.11400 147.000
21.13100 135.000
21.14800 160.000
21.16500 155.000
21.18200 157.000
21.19900 159.000
21.21600 150.000
21.23300 169.000
21.25000 167.000
21.26700 155.000
21.28400 154.000
21.30100 155.000
21.31800 158.000
21.33500 171.000
21.35200 180.000
21.36900 174.000
21.38600 173.000
21.40300 174.000
21.42000 160.000
21.43700 167.000
21.45400 167.000
21.47100 156.000
21.48800 163.000
21.50500 154.000
21.52200 150.000
21.53900 164.000
21.55600 161.000
21.57300 133.000
21.59000 139.000
21.60700 148.000
21.62400 138.000
21.64100 152.000
21.65800 160.000
21.67500 183.000
21.69200 136.000
21.70900 159.000
21.72600 149.000
21.74300 158.000
21.76000 175.000
21.77700 159.000
21.79400 136.000
21.81100 143.000
21.82800 161.000
21.84500 159.000
21.86200 165.000
21.87900 119.000
21.89600 159.000
21.91300 172.000
21.93000 160.000
21.94700 151.000
21.96400 164.000
21.98100 141.000
21.99800 170.000
22.01500 160.000
22.03200 136.000
22.04900 162.000
22.06600 171.000
22.08300 171.000
22.10000 135.000
22.11700 147.000
22.13400 182.000
22.15100 184.000
22.16800 153.000
22.18500 151.000
22.20200 154.000
22.21900 156.000
22.23600 155.000
22.25300 169.000
22.27000 168.000
22.28700 150.000
22.30400 150.000
22.32100 141.000
22.33800 150.000
22.35500 160.000
22.37200 150.000
22.38900 155.000
22.40600 173.000
22.42300 156.000
22.44000 145.000
22.45700 146.000
22.47400 175.000
22.49100 155.000
22.50800 144.000
22.52500 151.000
22.54200 156.000
22.55900 151.000
22.57600 153.000
22.59300 174.000
22.61000 162.000
22.62700 156.000
22.64400 148.000
22.66100 125.000
22.67800 184.000
22.69500 158.000
22.71200 147.000
22.72900 130.000
22.74600 150.000
22.76300 123.000
22.78000 126.000
22.79700 183.000
22.81400 189.000
22.83100 168.000
22.84800 144.000
22.86500 177.000
22.88200 183.000
22.89900 160.000
22.91600 173.000
22.93300 162.000
22.95000 154.000
22.96700 160.000
22.98400 175.000
23.00100 178.000
23.01800 166.000
23.03500 172.000
23.05200 165.000
23.06900 174.000
23.08600 210.000
23.10300 175.000
23.12000 144.000
23.13700 171.000
23.15400 203.000
23.17100 182.000
23.18800 176.000
23.20500 213.000
23.22200 270.000
23.23900 344.000
23.25600 396.000
23.27300 457.000
23.29000 575.000
23.30700 776.000
23.32400 1046.000
23.34100 1360.000
23.35800 1611.000
23.37500 1903.000
23.39200 2055.000
23.40900 1918.000
23.42600 1632.000
23.44300 1306.000
23.46000 958.000
23.47700 620.000
23.49400 431.000
23.51100 310.000
23.52800 273.000
23.54500 236.000
23.56200 165.000
23.57900 205.000
23.59600 199.000
23.61300 150.000
23.63000 187.000
23.64700 163.000
23.66400 138.000
23.68100 161.000
23.69800 143.000
23.71500 129.000
23.73200 149.000
23.74900 147.000
23.76600 158.000
23.78300 143.000
23.80000 135.000
23.81700 159.000
23.83400 145.000
23.85100 149.000
23.86800 136.000
23.88500 125.000
23.90200 158.000
23.91900 149.000
23.93600 122.000
23.95300 134.000
23.97000 115.000
23.98700 139.000
24.00400 146.000
24.02100 166.000
24.03800 156.000
24.05500 148.000
24.07200 134.000
24.08900 144.000
24.10600 148.000
24.12300 135.000
24.14000 147.000
24.15700 150.000
24.17400 147.000
24.19100 148.000
24.20800 131.000
24.22500 129.000
24.24200 145.000
24.25900 156.000
24.27600 142.000
24.29300 139.000
24.31000 150.000
24.32700 163.000
24.34400 158.000
24.36100 150.000
24.37800 145.000
24.39500 137.000
24.41200 146.000
24.42900 155.000
24.44600 136.000
24.46300 156.000
24.48000 144.000
24.49700 118.000
24.51400 133.000
24.53100 141.000
24.54800 133.000
24.56500 137.000
24.58200 148.000
24.59900 125.000
24.61600 133.000
24.63300 130.000
24.65000 113.000
24.66700 150.000
24.68400 124.000
24.70100 143.000
24.71800 120.000
24.73500 133.000
24.75200 145.000
24.76900 143.000
24.78600 153.000
24.80300 145.000
24.82000 147.000
24.83700 148.000
24.85400 177.000
24.87100 147.000
24.88800 149.000
24.90500 150.000
24.92200 167.000
24.93900 169.000
24.95600 170.000
24.97300 158.000
24.99000 133.000
25.00700 139.000
25.02400 155.000
25.04100 154.000
25.05800 206.000
25.07500 202.000
25.09200 205.000
25.10900 206.000
25.12600 184.000
25.14300 172.000
25.16000 190.000
25.17700 213.000
25.19400 219.000
25.21100 233.000
25.22800 218.000
25.24500 219.000
25.26200 183.000
25.27900 175.000
25.29600 181.000
25.31300 192.000
25.33000 211.000
25.34700 235.000
25.36400 253.000
25.38100 313.000
25.39800 395.000
25.41500 438.000
25.43200 478.000
25.44900 641.000
25.46600 992.000
25.48300 1351.000
25.50000 1692.000
25.51700 2151.000
25.53400 2553.000
25.55100 2854.000
25.56800 2828.000
25.58500 2253.000
25.60200 1818.000
25.61900 1293.000
25.63600 843.000
25.65300 556.000
25.67000 487.000
25.68700 406.000
25.70400 343.000
25.72100 287.000
25.73800 216.000
25.75500 211.000
25.77200 171.000
25.78900 169.000
25.80600 180.000
25.82300 163.000
25.84000 164.000
25.85700 162.000
25.87400 171.000
25.89100 167.000
25.90800 192.000
25.92500 159.000
25.94200 162.000
25.95900 165.000
25.97600 154.000
25.99300 164.000
26.01000 182.000
26.02700 172.000
26.04400 184.000
26.06100 161.000
26.07800 148.000
26.09500 166.000
26.11200 170.000
26.12900 174.000
26.14600 159.000
26.16300 155.000
26.18000 162.000
26.19700 145.000
26.21400 125.000
26.23100 138.000
26.24800 154.000
26.26500 157.000
26.28200 165.000
26.29900 185.000
26.31600 174.000
26.33300 192.000
26.35000 203.000
26.36700 202.000
26.38400 199.000
26.40100 214.000
26.41800 237.000
26.43500 215.000
26.45200 224.000
26.46900 198.000
26.48600 181.000
26.50300 159.000
26.52000 165.000
26.53700 193.000
26.55400 135.000
26.57100 156.000
26.58800 158.000
26.60500 136.000
26.62200 115.000
26.63900 147.000
26.65600 149.000
26.67300 160.000
26.69000 182.000
26.70700 147.000
26.72400 149.000
26.74100 131.000
26.75800 154.000
26.77500 168.000
26.79200 164.000
26.80900 163.000
26.82600 129.000
26.84300 145.000
26.86000 131.000
26.87700 127.000
26.89400 107.000
26.91100 124.000
26.92800 149.000
26.94500 162.000
26.96200 121.000
26.97900 153.000
26.99600 144.000
27.01300 131.000
27.03000 127.000
27.04700 140.000
27.06400 146.000
27.08100 143.000
27.09800 136.000
27.11500 122.000
27.13200 126.000
27.14900 123.000
27.16600 121.000
27.18300 128.000
27.20000 139.000
27.21700 155.000
27.23400 138.000
27.25100 132.000
27.26800 125.000
27.28500 122.000
27.30200 133.000
27.31900 135.000
27.33600 127.000
27.35300 131.000
27.37000 143.000
27.38700 135.000
27.40400 146.000
27.42100 139.000
27.43800 128.000
27.45500 148.000
27.47200 119.000
27.48900 190.000
27.50600 153.000
27.52300 155.000
27.54000 157.000
27.55700 195.000
27.57400 223.000
27.59100 198.000
27.60800 203.000
27.62500 222.000
27.64200 170.000
27.65900 189.000
27.67600 205.000
27.69300 157.000
27.71000 146.000
27.72700 163.000
27.74400 164.000
27.76100 140.000
27.77800 135.000
27.79500 177.000
27.81200 174.000
27.82900 141.000
27.84600 162.000
27.86300 160.000
27.88000 163.000
27.89700 147.000
27.91400 190.000
27.93100 173.000
27.94800 198.000
27.96500 208.000
27.98200 207.000
27.99900 233.000
28.01600 272.000
28.03300 325.000
28.05000 400.000
28.06700 479.000
28.08400 637.000
28.10100 810.000
28.11800 949.000
28.13500 1121.000
28.15200 1267.000
28.16900 1369.000
28.18600 1248.000
28.20300 1066.000
28.22000 861.000
28.23700 626.000
28.25400 478.000
28.27100 353.000
28.28800 289.000
28.30500 272.000
28.32200 245.000
28.33900 228.000
28.35600 212.000
28.37300 179.000
28.39000 190.000
28.40700 202.000
28.42400 242.000
28.44100 283.000
28.45800 245.000
28.47500 238.000
28.49200 237.000
28.50900 271.000
28.52600 262.000
28.54300 265.000
28.56000 244.000
28.57700 222.000
28.59400 188.000
28.61100 201.000
28.62800 169.000
28.64500 176.000
28.66200 169.000
28.67900 169.000
28.69600 191.000
28.71300 172.000
28.73000 197.000
28.74700 184.000
28.76400 195.000
28.78100 201.000
28.79800 211.000
28.81500 246.000
28.83200 274.000
28.84900 282.000
28.86600 333.000
28.88300 419.000
28.90000 525.000
28.91700 615.000
28.93400 756.000
28.95100 870.000
28.96800 1009.000
28.98500 1048.000
29.00200 955.000
29.01900 780.000
29.03600 656.000
29.05300 560.000
29.07000 407.000
29.08700 343.000
29.10400 319.000
29.12100 260.000
29.13800 208.000
29.15500 187.000
29.17200 161.000
29.18900 134.000
29.20600 145.000
29.22300 149.000
29.24000 150.000
29.25700 133.000
29.27400 132.000
29.29100 140.000
29.30800 125.000
29.32500 136.000
29.34200 152.000
29.35900 136.000
29.37600 140.000
29.39300 142.000
29.41000 141.000
29.42700 124.000
29.44400 152.000
29.46100 140.000
29.47800 142.000
29.49500 153.000
29.51200 150.000
29.52900 127.000
29.54600 148.000
29.56300 140.000
29.58000 119.000
29.59700 146.000
29.61400 144.000
29.63100 151.000
29.64800 153.000
29.66500 139.000
29.68200 141.000
29.69900 141.000
29.71600 155.000
29.73300 115.000
29.75000 126.000
29.76700 134.000
29.78400 111.000
29.80100 119.000
29.81800 136.000
29.83500 118.000
29.85200 126.000
29.86900 118.000
29.88600 115.000
29.90300 116.000
29.92000 114.000
29.93700 112.000
29.95400 126.000
29.97100 123.000
29.98800 132.000
30.00500 138.000
30.02200 124.000
30.03900 127.000
30.05600 136.000
30.07300 130.000
30.09000 125.000
30.10700 132.000
30.12400 130.000
30.14100 118.000
30.15800 135.000
30.17500 138.000
30.19200 145.000
30.20900 136.000
30.22600 118.000
30.24300 112.000
30.26000 114.000
30.27700 108.000
30.29400 124.000
30.31100 128.000
30.32800 120.000
30.34500 108.000
30.36200 101.000
30.37900 126.000
30.39600 147.000
30.41300 125.000
30.43000 116.000
30.44700 141.000
30.46400 97.000
30.48100 119.000
30.49800 123.000
30.51500 107.000
30.53200 132.000
30.54900 150.000
30.56600 134.000
30.58300 154.000
30.60000 121.000
30.61700 141.000
30.63400 146.000
30.65100 149.000
30.66800 150.000
30.68500 165.000
30.70200 183.000
30.71900 152.000
30.73600 161.000
30.75300 190.000
30.77000 178.000
30.78700 162.000
30.80400 192.000
30.82100 189.000
30.83800 182.000
30.85500 172.000
30.87200 190.000
30.88900 181.000
30.90600 181.000
30.92300 168.000
30.94000 181.000
30.95700 188.000
30.97400 207.000
30.99100 217.000
31.00800 251.000
31.02500 312.000
31.04200 378.000
31.05900 497.000
31.07600 639.000
31.09300 824.000
31.11000 1112.000
31.12700 1529.000
31.14400 2179.000
31.16100 2924.000
31.17800 3698.000
31.19500 4318.000
31.21200 4659.000
31.22900 4409.000
31.24600 3654.000
31.26300 2802.000
31.28000 1998.000
31.29700 1333.000
31.31400 910.000
31.33100 675.000
31.34800 476.000
31.36500 398.000
31.38200 333.000
31.39900 299.000
31.41600 264.000
31.43300 273.000
31.45000 230.000
31.46700 239.000
31.48400 235.000
31.50100 257.000
31.51800 190.000
31.53500 289.000
31.55200 297.000
31.56900 300.000
31.58600 299.000
31.60300 329.000
31.62000 461.000
31.63700 536.000
31.65400 665.000
31.67100 1037.000
31.68800 1195.000
31.70500 1594.000
31.72200 1887.000
31.73900 2241.000
31.75600 2403.000
31.77300 2171.000
31.79000 1819.000
31.80700 1507.000
31.82400 1070.000
31.84100 707.000
31.85800 462.000
31.87500 346.000
31.89200 307.000
31.90900 280.000
31.92600 240.000
31.94300 225.000
31.96000 195.000
31.97700 197.000
31.99400 199.000
32.01100 181.000
32.02800 179.000
32.04500 171.000
32.06200 153.000
32.07900 151.000
32.09600 141.000
32.11300 160.000
32.13000 182.000
32.14700 165.000
32.16400 177.000
32.18100 178.000
32.19800 193.000
32.21500 205.000
32.23200 214.000
32.24900 229.000
32.26600 231.000
32.28300 256.000
32.30000 285.000
32.31700 376.000
32.33400 455.000
32.35100 551.000
32.36800 740.000
32.38500 893.000
32.40200 1264.000
32.41900 1656.000
32.43600 2325.000
32.45300 2857.000
32.47000 3435.000
32.48700 3588.000
32.50400 3710.000
32.52100 3148.000
32.53800 2443.000
32.55500 1696.000
32.57200 1233.000
32.58900 883.000
32.60600 605.000
32.62300 443.000
32.64000 382.000
32.65700 307.000
32.67400 282.000
32.69100 232.000
32.70800 204.000
32.72500 246.000
32.74200 223.000
32.75900 181.000
32.77600 172.000
32.79300 151.000
32.81000 153.000
32.82700 113.000
32.84400 127.000
32.86100 133.000
32.87800 135.000
32.89500 141.000
32.91200 144.000
32.92900 117.000
32.94600 104.000
32.96300 111.000
32.98000 131.000
32.99700 123.000
33.01400 112.000
33.03100 115.000
33.04800 119.000
33.06500 105.000
33.08200 106.000
33.09900 124.000
33.11600 114.000
33.13300 111.000
33.15000 123.000
33.16700 108.000
33.18400 102.000
33.20100 95.000
33.21800 92.000
33.23500 102.000
33.25200 95.000
33.26900 87.000
33.28600 105.000
33.30300 109.000
33.32000 89.000
33.33700 102.000
33.35400 110.000
33.37100 103.000
33.38800 84.000
33.40500 103.000
33.42200 90.000
33.43900 102.000
33.45600 85.000
33.47300 129.000
33.49000 93.000
33.50700 117.000
33.52400 106.000
33.54100 100.000
33.55800 107.000
33.57500 94.000
33.59200 85.000
33.60900 113.000
33.62600 113.000
33.64300 99.000
33.66000 82.000
33.67700 93.000
33.69400 102.000
33.71100 114.000
33.72800 100.000
33.74500 103.000
33.76200 103.000
33.77900 121.000
33.79600 106.000
33.81300 90.000
33.83000 101.000
33.84700 86.000
33.86400 103.000
33.88100 96.000
33.89800 84.000
33.91500 97.000
33.93200 109.000
33.94900 95.000
33.96600 99.000
33.98300 100.000
34.00000 103.000
34.01700 96.000
34.03400 91.000
34.05100 94.000
34.06800 95.000
34.08500 94.000
34.10200 90.000
34.11900 96.000
34.13600 99.000
34.15300 119.000
34.17000 106.000
34.18700 96.000
34.20400 98.000
34.22100 84.000
34.23800 88.000
34.25500 90.000
34.27200 86.000
34.28900 93.000
34.30600 85.000
34.32300 67.000
34.34000 88.000
34.35700 105.000
34.37400 104.000
34.39100 94.000
34.40800 83.000
34.42500 90.000
34.44200 89.000
34.45900 85.000
34.47600 85.000
34.49300 94.000
34.51000 92.000
34.52700 86.000
34.54400 104.000
34.56100 85.000
34.57800 88.000
34.59500 104.000
34.61200 103.000
34.62900 91.000
34.64600 105.000
34.66300 82.000
34.68000 98.000
34.69700 100.000
34.71400 91.000
34.73100 96.000
34.74800 84.000
34.76500 92.000
34.78200 98.000
34.79900 97.000
34.81600 113.000
34.83300 107.000
34.85000 94.000
34.86700 101.000
34.88400 105.000
34.90100 96.000
34.91800 90.000
34.93500 92.000
34.95200 98.000
34.96900 114.000
34.98600 108.000
35.00300 89.000
35.02000 89.000
35.03700 99.000
35.05400 113.000
35.07100 113.000
35.08800 107.000
35.10500 105.000
35.12200 115.000
35.13900 105.000
35.15600 98.000
35.17300 92.000
35.19000 102.000
35.20700 94.000
35.22400 100.000
35.24100 97.000
35.25800 105.000
35.27500 100.000
35.29200 123.000
35.30900 106.000
35.32600 101.000
35.34300 103.000
35.36000 93.000
35.37700 102.000
35.39400 102.000
35.41100 112.000
35.42800 118.000
35.44500 108.000
35.46200 127.000
35.47900 115.000
35.49600 127.000
35.51300 122.000
35.53000 118.000
35.54700 128.000
35.56400 131.000
35.58100 128.000
35.59800 155.000
35.61500 154.000
35.63200 191.000
35.64900 238.000
35.66600 294.000
35.68300 342.000
35.70000 500.000
35.71700 734.000
35.73400 923.000
35.75100 1072.000
35.76800 1198.000
35.78500 1143.000
35.80200 975.000
35.81900 777.000
35.83600 542.000
35.85300 387.000
35.87000 273.000
35.88700 246.000
35.90400 210.000
35.92100 200.000
35.93800 190.000
35.95500 214.000
35.97200 225.000
35.98900 261.000
36.00600 295.000
36.02300 313.000
36.04000 383.000
36.05700 427.000
36.07400 410.000
36.09100 372.000
36.10800 305.000
36.12500 264.000
36.14200 224.000
36.15900 168.000
36.17600 142.000
36.19300 119.000
36.21000 116.000
36.22700 123.000
36.24400 95.000
36.26100 114.000
36.27800 102.000
36.29500 90.000
36.31200 93.000
36.32900 93.000
36.34600 104.000
36.36300 112.000
36.38000 100.000
36.39700 102.000
36.41400 102.000
36.43100 111.000
36.44800 88.000
36.46500 103.000
36.48200 94.000
36.49900 91.000
36.51600 99.000
36.53300 97.000
36.55000 88.000
36.56700 90.000
36.58400 103.000
36.60100 85.000
36.61800 85.000
36.63500 91.000
36.65200 94.000
36.66900 110.000
36.68600 89.000
36.70300 92.000
36.72000 112.000
36.73700 101.000
36.75400 95.000
36.77100 102.000
36.78800 98.000
36.80500 106.000
36.82200 96.000
36.83900 89.000
36.85600 92.000
36.87300 94.000
36.89000 96.000
36.90700 106.000
36.92400 96.000
36.94100 103.000
36.95800 105.000
36.97500 100.000
36.99200 98.000
37.00900 97.000
37.02600 95.000
37.04300 91.000
37.06000 89.000
37.07700 89.000
37.09400 108.000
37.11100 128.000
37.12800 108.000
37.14500 105.000
37.16200 119.000
37.17900 116.000
37.19600 113.000
37.21300 119.000
37.23000 127.000
37.24700 122.000
37.26400 137.000
37.28100 152.000
37.29800 164.000
37.31500 197.000
37.33200 182.000
37.34900 230.000
37.36600 245.000
37.38300 302.000
37.40000 315.000
37.41700 470.000
37.43400 573.000
37.45100 723.000
37.46800 1135.000
37.48500 1502.000
37.50200 2105.000
37.51900 2657.000
37.53600 3432.000
37.55300 3978.000
37.57000 4032.000
37.58700 3464.000
37.60400 2742.000
37.62100 2115.000
37.63800 1425.000
37.65500 914.000
37.67200 626.000
37.68900 426.000
37.70600 343.000
37.72300 284.000
37.74000 230.000
37.75700 225.000
37.77400 209.000
37.79100 178.000
37.80800 171.000
37.82500 175.000
37.84200 171.000
37.85900 164.000
37.87600 174.000
37.89300 176.000
37.91000 190.000
37.92700 225.000
37.94400 272.000
37.96100 321.000
37.97800 359.000
37.99500 423.000
38.01200 465.000
38.02900 463.000
38.04600 419.000
38.06300 354.000
38.08000 273.000
38.09700 220.000
38.11400 196.000
38.13100 168.000
38.14800 127.000
38.16500 115.000
38.18200 114.000
38.19900 123.000
38.21600 112.000
38.23300 89.000
38.25000 112.000
38.26700 112.000
38.28400 109.000
38.30100 105.000
38.31800 94.000
38.33500 97.000
38.35200 99.000
38.36900 85.000
38.38600 96.000
38.40300 97.000
38.42000 104.000
38.43700 90.000
38.45400 87.000
38.47100 84.000
38.48800 100.000
38.50500 105.000
38.52200 95.000
38.53900 86.000
38.55600 69.000
38.57300 98.000
38.59000 81.000
38.60700 98.000
38.62400 98.000
38.64100 91.000
38.65800 107.000
38.67500 91.000
38.69200 102.000
38.70900 85.000
38.72600 73.000
38.74300 75.000
38.76000 76.000
38.77700 92.000
38.79400 83.000
38.81100 81.000
38.82800 88.000
38.84500 87.000
38.86200 85.000
38.87900 88.000
38.89600 78.000
38.91300 78.000
38.93000 84.000
38.94700 82.000
38.96400 85.000
38.98100 89.000
38.99800 85.000
39.01500 81.000
39.03200 75.000
39.04900 73.000
39.06600 86.000
39.08300 91.000
39.10000 74.000
39.11700 68.000
39.13400 71.000
39.15100 80.000
39.16800 86.000
39.18500 92.000
39.20200 89.000
39.21900 95.000
39.23600 87.000
39.25300 83.000
39.27000 71.000
39.28700 65.000
39.30400 83.000
39.32100 73.000
39.33800 69.000
39.35500 85.000
39.37200 69.000
39.38900 67.000
39.40600 94.000
39.42300 72.000
39.44000 85.000
39.45700 82.000
39.47400 87.000
39.49100 82.000
39.50800 110.000
39.52500 83.000
39.54200 81.000
39.55900 84.000
39.57600 95.000
39.59300 86.000
39.61000 102.000
39.62700 82.000
39.64400 79.000
39.66100 95.000
39.67800 111.000
39.69500 105.000
39.71200 88.000
39.72900 100.000
39.74600 103.000
39.76300 101.000
39.78000 91.000
39.79700 116.000
39.81400 104.000
39.83100 86.000
39.84800 97.000
39.86500 105.000
39.88200 111.000
39.89900 116.000
39.91600 112.000
39.93300 117.000
39.95000 115.000
39.96700 115.000
39.98400 107.000
40.00100 106.000
40.01800 98.000
40.03500 83.000
40.05200 105.000
40.06900 118.000
40.08600 110.000
40.10300 88.000
40.12000 100.000
40.13700 96.000
40.15400 98.000
40.17100 92.000
40.18800 90.000
40.20500 102.000
40.22200 106.000
40.23900 95.000
40.25600 95.000
40.27300 98.000
40.29000 93.000
40.30700 81.000
40.32400 94.000
40.34100 110.000
40.35800 111.000
40.37500 105.000
40.39200 83.000
40.40900 120.000
40.42600 104.000
40.44300 119.000
40.46000 89.000
40.47700 110.000
40.49400 109.000
40.51100 108.000
40.52800 129.000
40.54500 120.000
40.56200 145.000
40.57900 126.000
40.59600 148.000
40.61300 128.000
40.63000 145.000
40.64700 153.000
40.66400 163.000
40.68100 195.000
40.69800 217.000
40.71500 248.000
40.73200 299.000
40.74900 389.000
40.76600 525.000
40.78300 706.000
40.80000 874.000
40.81700 1060.000
40.83400 1136.000
40.85100 1094.000
40.86800 962.000
40.88500 817.000
40.90200 634.000
40.91900 473.000
40.93600 344.000
40.95300 241.000
40.97000 194.000
40.98700 174.000
41.00400 158.000
41.02100 145.000
41.03800 140.000
41.05500 119.000
41.07200 112.000
41.08900 118.000
41.10600 110.000
41.12300 103.000
41.14000 111.000
41.15700 123.000
41.17400 99.000
41.19100 95.000
41.20800 109.000
41.22500 113.000
41.24200 108.000
41.25900 123.000
41.27600 94.000
41.29300 107.000
41.31000 106.000
41.32700 120.000
41.34400 144.000
41.36100 147.000
41.37800 180.000
41.39500 209.000
41.41200 233.000
41.42900 258.000
41.44600 290.000
41.46300 328.000
41.48000 338.000
41.49700 359.000
41.51400 364.000
41.53100 290.000
41.54800 270.000
41.56500 206.000
41.58200 196.000
41.59900 147.000
41.61600 136.000
41.63300 116.000
41.65000 121.000
41.66700 115.000
41.68400 104.000
41.70100 102.000
41.71800 113.000
41.73500 112.000
41.75200 89.000
41.76900 88.000
41.78600 96.000
41.80300 114.000
41.82000 101.000
41.83700 104.000
41.85400 101.000
41.87100 88.000
41.88800 96.000
41.90500 102.000
41.92200 92.000
41.93900 85.000
41.95600 105.000
41.97300 100.000
41.99000 106.000
42.00700 99.000
42.02400 87.000
42.04100 84.000
42.05800 96.000
42.07500 103.000
42.09200 88.000
42.10900 96.000
42.12600 100.000
42.14300 94.000
42.16000 92.000
42.17700 99.000
42.19400 104.000
42.21100 93.000
42.22800 85.000
42.24500 93.000
42.26200 97.000
42.27900 78.000
42.29600 87.000
42.31300 96.000
42.33000 89.000
42.34700 75.000
42.36400 93.000
42.38100 100.000
42.39800 84.000
42.41500 104.000
42.43200 104.000
42.44900 106.000
42.46600 102.000
42.48300 91.000
42.50000 100.000
42.51700 119.000
42.53400 114.000
42.55100 94.000
42.56800 117.000
42.58500 104.000
42.60200 106.000
42.61900 148.000
42.63600 194.000
42.65300 198.000
42.67000 246.000
42.68700 340.000
42.70400 453.000
42.72100 589.000
42.73800 650.000
42.75500 676.000
42.77200 605.000
42.78900 562.000
42.80600 449.000
42.82300 326.000
42.84000 253.000
42.85700 189.000
42.87400 158.000
42.89100 168.000
42.90800 160.000
42.92500 169.000
42.94200 184.000
42.95900 203.000
42.97600 244.000
42.99300 300.000
43.01000 412.000
43.02700 586.000
43.04400 773.000
43.06100 929.000
43.07800 1140.000
43.09500 1147.000
43.11200 1106.000
43.12900 1000.000
43.14600 810.000
43.16300 641.000
43.18000 423.000
43.19700 288.000
43.21400 224.000
43.23100 184.000
43.24800 178.000
43.26500 141.000
43.28200 134.000
43.29900 145.000
43.31600 104.000
43.33300 128.000
43.35000 100.000
43.36700 92.000
43.38400 108.000
43.40100 127.000
43.41800 136.000
43.43500 95.000
43.45200 85.000
43.46900 109.000
43.48600 98.000
43.50300 100.000
43.52000 94.000
43.53700 102.000
43.55400 101.000
43.57100 97.000
43.58800 104.000
43.60500 111.000
43.62200 104.000
43.63900 105.000
43.65600 110.000
43.67300 119.000
43.69000 119.000
43.70700 116.000
43.72400 111.000
43.74100 99.000
43.75800 99.000
43.77500 118.000
43.79200 129.000
43.80900 121.000
43.82600 120.000
43.84300 124.000
43.86000 131.000
43.87700 150.000
43.89400 168.000
43.91100 183.000
43.92800 219.000
43.94500 261.000
43.96200 309.000
43.97900 394.000
43.99600 558.000
44.01300 705.000
44.03000 870.000
44.04700 1095.000
44.06400 1232.000
44.08100 1268.000
44.09800 1213.000
44.11500 1046.000
44.13200 822.000
44.14900 628.000
44.16600 486.000
44.18300 402.000
44.20000 337.000
44.21700 253.000
44.23400 202.000
44.25100 152.000
44.26800 163.000
44.28500 129.000
44.30200 138.000
44.31900 115.000
44.33600 91.000
44.35300 119.000
44.37000 115.000
44.38700 114.000
44.40400 108.000
44.42100 104.000
44.43800 90.000
44.45500 79.000
44.47200 95.000
44.48900 110.000
44.50600 103.000
44.52300 110.000
44.54000 109.000
44.55700 110.000
44.57400 103.000
44.59100 98.000
44.60800 104.000
44.62500 94.000
44.64200 96.000
44.65900 93.000
44.67600 90.000
44.69300 101.000
44.71000 87.000
44.72700 86.000
44.74400 71.000
44.76100 79.000
44.77800 78.000
44.79500 78.000
44.81200 86.000
44.82900 84.000
44.84600 74.000
44.86300 74.000
44.88000 77.000
44.89700 96.000
44.91400 99.000
44.93100 93.000
44.94800 86.000
44.96500 92.000
44.98200 94.000
44.99900 98.000
45.01600 94.000
45.03300 99.000
45.05000 85.000
45.06700 82.000
45.08400 83.000
45.10100 91.000
45.11800 102.000
45.13500 106.000
45.15200 110.000
45.16900 126.000
45.18600 112.000
45.20300 104.000
45.22000 168.000
45.23700 181.000
45.25400 243.000
45.27100 338.000
45.28800 429.000
45.30500 468.000
45.32200 557.000
45.33900 560.000
45.35600 491.000
45.37300 366.000
45.39000 283.000
45.40700 236.000
45.42400 174.000
45.44100 148.000
45.45800 135.000
45.47500 108.000
45.49200 90.000
45.50900 97.000
45.52600 95.000
45.54300 78.000
45.56000 97.000
45.57700 93.000
45.59400 78.000
45.61100 81.000
45.62800 83.000
45.64500 72.000
45.66200 65.000
45.67900 79.000
45.69600 99.000
45.71300 92.000
45.73000 81.000
45.74700 92.000
45.76400 75.000
45.78100 81.000
45.79800 87.000
45.81500 77.000
45.83200 73.000
45.84900 75.000
45.86600 79.000
45.88300 75.000
45.90000 81.000
45.91700 73.000
45.93400 72.000
45.95100 85.000
45.96800 90.000
45.98500 97.000
46.00200 114.000
46.01900 107.000
46.03600 99.000
46.05300 92.000
46.07000 98.000
46.08700 91.000
46.10400 94.000
46.12100 85.000
46.13800 79.000
46.15500 89.000
46.17200 78.000
46.18900 79.000
46.20600 95.000
46.22300 98.000
46.24000 86.000
46.25700 104.000
46.27400 101.000
46.29100 84.000
46.30800 110.000
46.32500 99.000
46.34200 98.000
46.35900 113.000
46.37600 129.000
46.39300 116.000
46.41000 116.000
46.42700 136.000
46.44400 140.000
46.46100 158.000
46.47800 161.000
46.49500 206.000
46.51200 261.000
46.52900 305.000
46.54600 398.000
46.56300 500.000
46.58000 542.000
46.59700 546.000
46.61400 519.000
46.63100 459.000
46.64800 394.000
46.66500 286.000
46.68200 210.000
46.69900 164.000
46.71600 152.000
46.73300 144.000
46.75000 120.000
46.76700 121.000
46.78400 111.000
46.80100 106.000
46.81800 93.000
46.83500 96.000
46.85200 96.000
46.86900 95.000
46.88600 93.000
46.90300 94.000
46.92000 99.000
46.93700 88.000
46.95400 87.000
46.97100 94.000
46.98800 94.000
47.00500 85.000
47.02200 86.000
47.03900 84.000
47.05600 75.000
47.07300 78.000
47.09000 76.000
47.10700 89.000
47.12400 82.000
47.14100 87.000
47.15800 92.000
47.17500 86.000
47.19200 67.000
47.20900 85.000
47.22600 87.000
47.24300 93.000
47.26000 85.000
47.27700 89.000
47.29400 79.000
47.31100 84.000
47.32800 92.000
47.34500 82.000
47.36200 82.000
47.37900 81.000
47.39600 84.000
47.41300 86.000
47.43000 100.000
47.44700 88.000
47.46400 99.000
47.48100 103.000
47.49800 102.000
47.51500 108.000
47.53200 126.000
47.54900 133.000
47.56600 126.000
47.58300 142.000
47.60000 150.000
47.61700 167.000
47.63400 173.000
47.65100 218.000
47.66800 281.000
47.68500 335.000
47.70200 469.000
47.71900 669.000
47.73600 900.000
47.75300 1186.000
47.77000 1526.000
47.78700 1746.000
47.80400 1768.000
47.82100 1562.000
47.83800 1263.000
47.85500 940.000
47.87200 678.000
47.88900 517.000
47.90600 419.000
47.92300 379.000
47.94000 335.000
47.95700 331.000
47.97400 367.000
47.99100 396.000
48.00800 497.000
48.02500 627.000
48.04200 865.000
48.05900 1134.000
48.07600 1431.000
48.09300 1727.000
48.11000 1785.000
48.12700 1718.000
48.14400 1451.000
48.16100 1104.000
48.17800 837.000
48.19500 587.000
48.21200 439.000
48.22900 327.000
48.24600 260.000
48.26300 231.000
48.28000 208.000
48.29700 162.000
48.31400 190.000
48.33100 176.000
48.34800 140.000
48.36500 155.000
48.38200 147.000
48.39900 158.000
48.41600 118.000
48.43300 111.000
48.45000 110.000
48.46700 118.000
48.48400 117.000
48.50100 113.000
48.51800 115.000
48.53500 115.000
48.55200 103.000
48.56900 93.000
48.58600 100.000
48.60300 105.000
48.62000 92.000
48.63700 91.000
48.65400 89.000
48.67100 90.000
48.68800 84.000
48.70500 90.000
48.72200 100.000
48.73900 87.000
48.75600 82.000
48.77300 90.000
48.79000 98.000
48.80700 111.000
48.82400 104.000
48.84100 97.000
48.85800 110.000
48.87500 105.000
48.89200 121.000
48.90900 139.000
48.92600 151.000
48.94300 173.000
48.96000 227.000
48.97700 268.000
48.99400 314.000
49.01100 335.000
49.02800 352.000
49.04500 387.000
49.06200 383.000
49.07900 406.000
49.09600 352.000
49.11300 286.000
49.13000 237.000
49.14700 214.000
49.16400 166.000
49.18100 130.000
49.19800 115.000
49.21500 99.000
49.23200 108.000
49.24900 94.000
49.26600 97.000
49.28300 91.000
49.30000 88.000
49.31700 85.000
49.33400 101.000
49.35100 88.000
49.36800 90.000
49.38500 91.000
49.40200 76.000
49.41900 87.000
49.43600 95.000
49.45300 98.000
49.47000 90.000
49.48700 93.000
49.50400 96.000
49.52100 91.000
49.53800 70.000
49.55500 81.000
49.57200 83.000
49.58900 76.000
49.60600 67.000
49.62300 74.000
49.64000 71.000
49.65700 78.000
49.67400 74.000
49.69100 81.000
49.70800 82.000
49.72500 68.000
49.74200 70.000
49.75900 73.000
49.77600 67.000
49.79300 77.000
49.81000 89.000
49.82700 88.000
49.84400 81.000
49.86100 76.000
49.87800 78.000
49.89500 80.000
49.91200 85.000
49.92900 76.000
49.94600 75.000
49.96300 77.000
49.98000 74.000
49.99700 73.000
50.01400 78.000
50.03100 71.000
50.04800 65.000
50.06500 50.000
50.08200 74.000
50.09900 74.000
50.11600 71.000
50.13300 74.000
50.15000 96.000
50.16700 70.000
50.18400 69.000
50.20100 83.000
50.21800 72.000
50.23500 70.000
50.25200 67.000
50.26900 72.000
50.28600 83.000
50.30300 78.000
50.32000 69.000
50.33700 80.000
50.35400 85.000
50.37100 75.000
50.38800 84.000
50.40500 78.000
50.42200 67.000
50.43900 69.000
50.45600 76.000
50.47300 70.000
50.49000 69.000
50.50700 68.000
50.52400 82.000
50.54100 70.000
50.55800 70.000
50.57500 76.000
50.59200 72.000
50.60900 68.000
50.62600 74.000
50.64300 86.000
50.66000 83.000
50.67700 76.000
50.69400 77.000
50.71100 76.000
50.72800 86.000
50.74500 86.000
50.76200 83.000
50.77900 84.000
50.79600 92.000
50.81300 88.000
50.83000 77.000
50.84700 75.000
50.86400 77.000
50.88100 87.000
50.89800 92.000
50.91500 81.000
50.93200 89.000
50.94900 81.000
50.96600 77.000
50.98300 80.000
51.00000 73.000
51.01700 82.000
51.03400 94.000
51.05100 85.000
51.06800 72.000
51.08500 75.000
51.10200 79.000
51.11900 73.000
51.13600 73.000
51.15300 68.000
51.17000 60.000
51.18700 58.000
51.20400 64.000
51.22100 95.000
51.23800 75.000
51.25500 75.000
51.27200 79.000
51.28900 73.000
51.30600 82.000
51.32300 95.000
51.34000 98.000
51.35700 88.000
51.37400 109.000
51.39100 122.000
51.40800 124.000
51.42500 120.000
51.44200 108.000
51.45900 127.000
51.47600 123.000
51.49300 113.000
51.51000 132.000
51.52700 167.000
51.54400 197.000
51.56100 219.000
51.57800 281.000
51.59500 341.000
51.61200 425.000
51.62900 431.000
51.64600 393.000
51.66300 349.000
51.68000 261.000
51.69700 216.000
51.71400 177.000
51.73100 143.000
51.74800 131.000
51.76500 114.000
51.78200 103.000
51.79900 94.000
51.81600 85.000
51.83300 76.000
51.85000 92.000
51.86700 91.000
51.88400 89.000
51.90100 91.000
51.91800 83.000
51.93500 81.000
51.95200 89.000
51.96900 86.000
51.98600 80.000
52.00300 75.000
52.02000 79.000
52.03700 76.000
52.05400 83.000
52.07100 80.000
52.08800 80.000
52.10500 74.000
52.12200 68.000
52.13900 68.000
52.15600 81.000
52.17300 84.000
52.19000 91.000
52.20700 62.000
52.22400 53.000
52.24100 78.000
52.25800 70.000
52.27500 77.000
52.29200 69.000
52.30900 78.000
52.32600 72.000
52.34300 70.000
52.36000 82.000
52.37700 92.000
52.39400 100.000
52.41100 112.000
52.42800 97.000
52.44500 103.000
52.46200 107.000
52.47900 121.000
52.49600 105.000
52.51300 89.000
52.53000 98.000
52.54700 87.000
52.56400 73.000
52.58100 76.000
52.59800 74.000
52.61500 74.000
52.63200 79.000
52.64900 87.000
52.66600 85.000
52.68300 85.000
52.70000 86.000
52.71700 81.000
52.73400 73.000
52.75100 74.000
52.76800 76.000
52.78500 74.000
52.80200 72.000
52.81900 66.000
52.83600 89.000
52.85300 89.000
52.87000 77.000
52.88700 75.000
52.90400 79.000
52.92100 89.000
52.93800 83.000
52.95500 79.000
52.97200 94.000
52.98900 80.000
53.00600 84.000
53.02300 83.000
53.04000 79.000
53.05700 66.000
53.07400 64.000
53.09100 69.000
53.10800 78.000
53.12500 85.000
53.14200 71.000
53.15900 104.000
53.17600 88.000
53.19300 73.000
53.21000 69.000
53.22700 74.000
53.24400 67.000
53.26100 68.000
53.27800 77.000
53.29500 69.000
53.31200 72.000
53.32900 68.000
53.34600 77.000
53.36300 74.000
53.38000 80.000
53.39700 84.000
53.41400 89.000
53.43100 79.000
53.44800 88.000
53.46500 78.000
53.48200 98.000
53.49900 100.000
53.51600 109.000
53.53300 102.000
53.55000 111.000
53.56700 135.000
53.58400 138.000
53.60100 125.000
53.61800 132.000
53.63500 120.000
53.65200 103.000
53.66900 103.000
53.68600 96.000
53.70300 105.000
53.72000 105.000
53.73700 91.000
53.75400 92.000
53.77100 90.000
53.78800 97.000
53.80500 99.000
53.82200 84.000
53.83900 80.000
53.85600 86.000
53.87300 77.000
53.89000 68.000
53.90700 79.000
53.92400 93.000
53.94100 97.000
53.95800 77.000
53.97500 80.000
53.99200 85.000
54.00900 91.000
54.02600 79.000
54.04300 78.000
54.06000 81.000
54.07700 91.000
54.09400 86.000
54.11100 79.000
54.12800 80.000
54.14500 76.000
54.16200 63.000
54.17900 75.000
54.19600 87.000
54.21300 67.000
54.23000 78.000
54.24700 69.000
54.26400 84.000
54.28100 86.000
54.29800 81.000
54.31500 83.000
54.33200 85.000
54.34900 88.000
54.36600 84.000
54.38300 80.000
54.40000 77.000
54.41700 83.000
54.43400 81.000
54.45100 80.000
54.46800 93.000
54.48500 103.000
54.50200 94.000
54.51900 105.000
54.53600 92.000
54.55300 97.000
54.57000 127.000
54.58700 161.000
54.60400 175.000
54.62100 219.000
54.63800 258.000
54.65500 307.000
54.67200 353.000
54.68900 363.000
54.70600 345.000
54.72300 301.000
54.74000 237.000
54.75700 182.000
54.77400 153.000
54.79100 129.000
54.80800 104.000
54.82500 99.000
54.84200 104.000
54.85900 103.000
54.87600 107.000
54.89300 98.000
54.91000 90.000
54.92700 91.000
54.94400 87.000
54.96100 89.000
54.97800 88.000
54.99500 94.000
55.01200 88.000
55.02900 88.000
55.04600 99.000
55.06300 93.000
55.08000 95.000
55.09700 95.000
55.11400 99.000
55.13100 96.000
55.14800 88.000
55.16500 106.000
55.18200 115.000
55.19900 133.000
55.21600 149.000
55.23300 176.000
55.25000 205.000
55.26700 253.000
55.28400 321.000
55.30100 351.000
55.31800 395.000
55.33500 348.000
55.35200 325.000
55.36900 270.000
55.38600 205.000
55.40300 180.000
55.42000 154.000
55.43700 125.000
55.45400 113.000
55.47100 90.000
55.48800 104.000
55.50500 97.000
55.52200 86.000
55.53900 90.000
55.55600 94.000
55.57300 93.000
55.59000 97.000
55.60700 95.000
55.62400 91.000
55.64100 83.000
55.65800 79.000
55.67500 92.000
55.69200 94.000
55.70900 96.000
55.72600 91.000
55.74300 97.000
55.76000 95.000
55.77700 99.000
55.79400 103.000
55.81100 96.000
55.82800 96.000
55.84500 91.000
55.86200 89.000
55.87900 100.000
55.89600 94.000
55.91300 80.000
55.93000 71.000
55.94700 67.000
55.96400 78.000
55.98100 84.000
55.99800 83.000
56.01500 86.000
56.03200 68.000
56.04900 84.000
56.06600 82.000
56.08300 68.000
56.10000 81.000
56.11700 71.000
56.13400 70.000
56.15100 72.000
56.16800 76.000
56.18500 72.000
56.20200 78.000
56.21900 62.000
56.23600 69.000
56.25300 78.000
56.27000 83.000
56.28700 81.000
56.30400 80.000
56.32100 71.000
56.33800 59.000
56.35500 80.000
56.37200 67.000
56.38900 75.000
56.40600 76.000
56.42300 73.000
56.44000 65.000
56.45700 74.000
56.47400 74.000
56.49100 78.000
56.50800 86.000
56.52500 82.000
56.54200 93.000
56.55900 89.000
56.57600 78.000
56.59300 84.000
56.61000 80.000
56.62700 84.000
56.64400 86.000
56.66100 82.000
56.67800 93.000
56.69500 106.000
56.71200 113.000
56.72900 105.000
56.74600 112.000
56.76300 110.000
56.78000 122.000
56.79700 136.000
56.81400 174.000
56.83100 216.000
56.84800 269.000
56.86500 348.000
56.88200 421.000
56.89900 503.000
56.91600 494.000
56.93300 433.000
56.95000 378.000
56.96700 351.000
56.98400 300.000
57.00100 279.000
57.01800 280.000
57.03500 281.000
57.05200 350.000
57.06900 405.000
57.08600 501.000
57.10300 605.000
57.12000 653.000
57.13700 717.000
57.15400 650.000
57.17100 546.000
57.18800 417.000
57.20500 335.000
57.22200 278.000
57.23900 196.000
57.25600 162.000
57.27300 127.000
57.29000 128.000
57.30700 112.000
57.32400 121.000
57.34100 99.000
57.35800 106.000
57.37500 107.000
57.39200 86.000
57.40900 109.000
57.42600 105.000
57.44300 86.000
57.46000 94.000
57.47700 86.000
57.49400 77.000
57.51100 97.000
57.52800 111.000
57.54500 92.000
57.56200 90.000
57.57900 90.000
57.59600 83.000
57.61300 86.000
57.63000 97.000
57.64700 92.000
57.66400 90.000
57.68100 97.000
57.69800 94.000
57.71500 92.000
57.73200 84.000
57.74900 97.000
57.76600 106.000
57.78300 104.000
57.80000 105.000
57.81700 116.000
57.83400 111.000
57.85100 124.000
57.86800 139.000
57.88500 185.000
57.90200 195.000
57.91900 217.000
57.93600 287.000
57.95300 387.000
57.97000 450.000
57.98700 452.000
58.00400 456.000
58.02100 397.000
58.03800 336.000
58.05500 301.000
58.07200 287.000
58.08900 260.000
58.10600 294.000
58.12300 313.000
58.14000 377.000
58.15700 491.000
58.17400 553.000
58.19100 582.000
58.20800 539.000
58.22500 462.000
58.24200 432.000
58.25900 326.000
58.27600 254.000
58.29300 192.000
58.31000 143.000
58.32700 125.000
58.34400 118.000
58.36100 101.000
58.37800 100.000
58.39500 102.000
58.41200 89.000
58.42900 85.000
58.44600 86.000
58.46300 88.000
58.48000 89.000
58.49700 88.000
58.51400 84.000
58.53100 80.000
58.54800 82.000
58.56500 89.000
58.58200 90.000
58.59900 84.000
58.61600 77.000
58.63300 69.000
58.65000 74.000
58.66700 81.000
58.68400 86.000
58.70100 80.000
58.71800 71.000
58.73500 79.000
58.75200 78.000
58.76900 77.000
58.78600 74.000
58.80300 81.000
58.82000 87.000
58.83700 87.000
58.85400 76.000
58.87100 82.000
58.88800 83.000
58.90500 77.000
58.92200 81.000
58.93900 77.000
58.95600 79.000
58.97300 66.000
58.99000 85.000
59.00700 74.000
59.02400 75.000
59.04100 84.000
59.05800 82.000
59.07500 78.000
59.09200 79.000
59.10900 81.000
59.12600 65.000
59.14300 71.000
59.16000 78.000
59.17700 77.000
59.19400 66.000
59.21100 59.000
59.22800 62.000
59.24500 72.000
59.26200 76.000
59.27900 69.000
59.29600 79.000
59.31300 65.000
59.33000 83.000
59.34700 80.000
59.36400 80.000
59.38100 70.000
59.39800 77.000
59.41500 78.000
59.43200 82.000
59.44900 72.000
59.46600 77.000
59.48300 75.000
59.50000 80.000
59.51700 88.000
59.53400 91.000
59.55100 95.000
59.56800 95.000
59.58500 94.000
59.60200 87.000
59.61900 82.000
59.63600 88.000
59.65300 89.000
59.67000 91.000
59.68700 96.000
59.70400 86.000
59.72100 71.000
59.73800 76.000
59.75500 93.000
59.77200 90.000
59.78900 85.000
59.80600 79.000
59.82300 77.000
59.84000 92.000
59.85700 99.000
59.87400 90.000
59.89100 78.000
59.90800 113.000
59.92500 113.000
59.94200 128.000
59.95900 141.000
59.97600 166.000
59.99300 182.000
60.01000 174.000
60.02700 181.000
60.04400 180.000
60.06100 151.000
60.07800 166.000
60.09500 121.000
60.11200 124.000
60.12900 99.000
60.14600 106.000
60.16300 90.000
60.18000 81.000
60.19700 75.000
60.21400 81.000
60.23100 72.000
60.24800 76.000
60.26500 76.000
60.28200 73.000
60.29900 76.000
60.31600 70.000
60.33300 57.000
60.35000 77.000
60.36700 76.000
60.38400 80.000
60.40100 90.000
60.41800 84.000
60.43500 80.000
60.45200 80.000
60.46900 79.000
60.48600 80.000
60.50300 75.000
60.52000 74.000
60.53700 81.000
60.55400 81.000
60.57100 76.000
60.58800 83.000
60.60500 90.000
60.62200 73.000
60.63900 73.000
60.65600 89.000
60.67300 87.000
60.69000 88.000
60.70700 80.000
60.72400 87.000
60.74100 96.000
60.75800 95.000
60.77500 102.000
60.79200 100.000
60.80900 97.000
60.82600 105.000
60.84300 105.000
60.86000 117.000
60.87700 141.000
60.89400 142.000
60.91100 173.000
60.92800 201.000
60.94500 245.000
60.96200 355.000
60.97900 453.000
60.99600 552.000
61.01300 658.000
61.03000 724.000
61.04700 759.000
61.06400 685.000
61.08100 584.000
61.09800 503.000
61.11500 385.000
61.13200 342.000
61.14900 309.000
61.16600 266.000
61.18300 274.000
61.20000 302.000
61.21700 347.000
61.23400 456.000
61.25100 570.000
61.26800 623.000
61.28500 708.000
61.30200 738.000
61.31900 698.000
61.33600 602.000
61.35300 511.000
61.37000 422.000
61.38700 340.000
61.40400 272.000
61.42100 198.000
61.43800 166.000
61.45500 160.000
61.47200 158.000
61.48900 160.000
61.50600 164.000
61.52300 175.000
61.54000 192.000
61.55700 217.000
61.57400 242.000
61.59100 263.000
61.60800 287.000
61.62500 299.000
61.64200 286.000
61.65900 259.000
61.67600 223.000
61.69300 184.000
61.71000 174.000
61.72700 164.000
61.74400 143.000
61.76100 126.000
61.77800 121.000
61.79500 116.000
61.81200 117.000
61.82900 131.000
61.84600 141.000
61.86300 140.000
61.88000 155.000
61.89700 151.000
61.91400 185.000
61.93100 178.000
61.94800 224.000
61.96500 266.000
61.98200 323.000
61.99900 418.000
62.01600 522.000
62.03300 662.000
62.05000 734.000
62.06700 788.000
62.08400 745.000
62.10100 632.000
62.11800 533.000
62.13500 416.000
62.15200 322.000
62.16900 249.000
62.18600 230.000
62.20300 175.000
62.22000 160.000
62.23700 128.000
62.25400 122.000
62.27100 121.000
62.28800 137.000
62.30500 120.000
62.32200 110.000
62.33900 118.000
62.35600 96.000
62.37300 97.000
62.39000 108.000
62.40700 110.000
62.42400 91.000
62.44100 105.000
62.45800 106.000
62.47500 106.000
62.49200 102.000
62.50900 104.000
62.52600 97.000
62.54300 102.000
62.56000 105.000
62.57700 105.000
62.59400 99.000
62.61100 93.000
62.62800 100.000
62.64500 105.000
62.66200 107.000
62.67900 118.000
62.69600 118.000
62.71300 124.000
62.73000 134.000
62.74700 144.000
62.76400 139.000
62.78100 163.000
62.79800 151.000
62.81500 162.000
62.83200 177.000
62.84900 206.000
62.86600 234.000
62.88300 265.000
62.90000 333.000
62.91700 398.000
62.93400 441.000
62.95100 577.000
62.96800 849.000
62.98500 1209.000
63.00200 1629.000
63.01900 2082.000
63.03600 2474.000
63.05300 2788.000
63.07000 2874.000
63.08700 2541.000
63.10400 2074.000
63.12100 1548.000
63.13800 1108.000
63.15500 755.000
63.17200 541.000
63.18900 430.000
63.20600 359.000
63.22300 293.000
63.24000 264.000
63.25700 224.000
63.27400 213.000
63.29100 208.000
63.30800 194.000
63.32500 178.000
63.34200 168.000
63.35900 157.000
63.37600 141.000
63.39300 128.000
63.41000 115.000
63.42700 114.000
63.44400 115.000
63.46100 114.000
63.47800 113.000
63.49500 111.000
63.51200 116.000
63.52900 110.000
63.54600 106.000
63.56300 111.000
63.58000 117.000
63.59700 106.000
63.61400 100.000
63.63100 103.000
63.64800 109.000
63.66500 120.000
63.68200 106.000
63.69900 96.000
63.71600 107.000
63.73300 105.000
63.75000 113.000
63.76700 120.000
63.78400 133.000
63.80100 148.000
63.81800 155.000
63.83500 146.000
63.85200 159.000
63.86900 158.000
63.88600 192.000
63.90300 219.000
63.92000 246.000
63.93700 269.000
63.95400 334.000
63.97100 409.000
63.98800 523.000
64.00500 655.000
64.02200 899.000
64.03900 1037.000
64.05600 1273.000
64.07300 1393.000
64.09000 1422.000
64.10700 1215.000
64.12400 1009.000
64.14100 792.000
64.15800 608.000
64.17500 454.000
64.19200 373.000
64.20900 302.000
64.22600 261.000
64.24300 226.000
64.26000 206.000
64.27700 215.000
64.29400 240.000
64.31100 247.000
64.32800 244.000
64.34500 218.000
64.36200 180.000
64.37900 171.000
64.39600 148.000
64.41300 135.000
64.43000 125.000
64.44700 108.000
64.46400 97.000
64.48100 112.000
64.49800 113.000
64.51500 95.000
64.53200 90.000
64.54900 94.000
64.56600 94.000
64.58300 95.000
64.60000 90.000
64.61700 91.000
64.63400 96.000
64.65100 97.000
64.66800 86.000
64.68500 83.000
64.70200 88.000
64.71900 88.000
64.73600 87.000
64.75300 86.000
64.77000 81.000
64.78700 87.000
64.80400 89.000
64.82100 84.000
64.83800 70.000
64.85500 84.000
64.87200 89.000
64.88900 87.000
64.90600 91.000
64.92300 84.000
64.94000 86.000
64.95700 88.000
64.97400 102.000
64.99100 108.000
65.00800 112.000
65.02500 118.000
65.04200 136.000
65.05900 150.000
65.07600 142.000
65.09300 132.000
65.11000 107.000
65.12700 110.000
65.14400 114.000
65.16100 97.000
65.17800 78.000
65.19500 77.000
65.21200 82.000
65.22900 79.000
65.24600 61.000
65.26300 73.000
65.28000 76.000
65.29700 78.000
65.31400 74.000
65.33100 81.000
65.34800 84.000
65.36500 81.000
65.38200 82.000
65.39900 75.000
65.41600 81.000
65.43300 76.000
65.45000 77.000
65.46700 83.000
65.48400 89.000
65.50100 80.000
65.51800 84.000
65.53500 95.000
65.55200 94.000
65.56900 94.000
65.58600 102.000
65.60300 123.000
65.62000 121.000
65.63700 111.000
65.65400 113.000
65.67100 107.000
65.68800 91.000
65.70500 93.000
65.72200 91.000
65.73900 85.000
65.75600 75.000
65.77300 88.000
65.79000 70.000
65.80700 68.000
65.82400 75.000
65.84100 81.000
65.85800 64.000
65.87500 69.000
65.89200 66.000
65.90900 67.000
65.92600 75.000
65.94300 80.000
65.96000 65.000
65.97700 64.000
65.99400 77.000
66.01100 59.000
66.02800 71.000
66.04500 69.000
66.06200 60.000
66.07900 70.000
66.09600 67.000
66.11300 78.000
66.13000 67.000
66.14700 55.000
66.16400 77.000
66.18100 75.000
66.19800 73.000
66.21500 76.000
66.23200 63.000
66.24900 60.000
66.26600 54.000
66.28300 58.000
66.30000 52.000
66.31700 60.000
66.33400 72.000
66.35100 69.000
66.36800 64.000
66.38500 62.000
66.40200 60.000
66.41900 57.000
66.43600 66.000
66.45300 74.000
66.47000 75.000
66.48700 70.000
66.50400 65.000
66.52100 75.000
66.53800 75.000
66.55500 77.000
66.57200 63.000
66.58900 57.000
66.60600 61.000
66.62300 65.000
66.64000 69.000
66.65700 72.000
66.67400 73.000
66.69100 67.000
66.70800 59.000
66.72500 71.000
66.74200 67.000
66.75900 63.000
66.77600 64.000
66.79300 76.000
66.81000 66.000
66.82700 72.000
66.84400 58.000
66.86100 70.000
66.87800 75.000
66.89500 77.000
66.91200 83.000
66.92900 96.000
66.94600 91.000
66.96300 85.000
66.98000 107.000
66.99700 120.000
67.01400 136.000
67.03100 163.000
67.04800 170.000
67.06500 169.000
67.08200 141.000
67.09900 151.000
67.11600 147.000
67.13300 132.000
67.15000 137.000
67.16700 154.000
67.18400 192.000
67.20100 203.000
67.21800 247.000
67.23500 243.000
67.25200 199.000
67.26900 200.000
67.28600 174.000
67.30300 140.000
67.32000 112.000
67.33700 102.000
67.35400 101.000
67.37100 92.000
67.38800 86.000
67.40500 83.000
67.42200 86.000
67.43900 81.000
67.45600 71.000
67.47300 66.000
67.49000 63.000
67.50700 71.000
67.52400 83.000
67.54100 80.000
67.55800 77.000
67.57500 74.000
67.59200 69.000
67.60900 72.000
67.62600 74.000
67.64300 76.000
67.66000 77.000
67.67700 77.000
67.69400 79.000
67.71100 72.000
67.72800 76.000
67.74500 79.000
67.76200 81.000
67.77900 81.000
67.79600 85.000
67.81300 84.000
67.83000 70.000
67.84700 72.000
67.86400 71.000
67.88100 91.000
67.89800 83.000
67.91500 80.000
67.93200 102.000
67.94900 109.000
67.96600 114.000
67.98300 136.000
68.00000 134.000
68.01700 143.000
68.03400 121.000
68.05100 111.000
68.06800 105.000
68.08500 110.000
68.10200 100.000
68.11900 104.000
68.13600 94.000
68.15300 97.000
68.17000 98.000
68.18700 109.000
68.20400 115.000
68.22100 111.000
68.23800 123.000
68.25500 118.000
68.27200 97.000
68.28900 93.000
68.30600 76.000
68.32300 73.000
68.34000 78.000
68.35700 72.000
68.37400 69.000
68.39100 73.000
68.40800 71.000
68.42500 68.000
68.44200 68.000
68.45900 74.000
68.47600 72.000
68.49300 68.000
68.51000 78.000
68.52700 80.000
68.54400 75.000
68.56100 72.000
68.57800 70.000
68.59500 70.000
68.61200 73.000
68.62900 79.000
68.64600 78.000
68.66300 74.000
68.68000 70.000
68.69700 69.000
68.71400 78.000
68.73100 78.000
68.74800 69.000
68.76500 78.000
68.78200 68.000
68.79900 66.000
68.81600 70.000
68.83300 76.000
68.85000 70.000
68.86700 64.000
68.88400 63.000
68.90100 88.000
68.91800 69.000
68.93500 72.000
68.95200 70.000
68.96900 102.000
68.98600 98.000
69.00300 93.000
69.02000 75.000
69.03700 99.000
69.05400 113.000
69.07100 104.000
69.08800 128.000
69.10500 155.000
69.12200 175.000
69.13900 211.000
69.15600 255.000
69.17300 271.000
69.19000 289.000
69.20700 290.000
69.22400 272.000
69.24100 241.000
69.25800 184.000
69.27500 157.000
69.29200 129.000
69.30900 104.000
69.32600 92.000
69.34300 88.000
69.36000 88.000
69.37700 88.000
69.39400 93.000
69.41100 86.000
69.42800 83.000
69.44500 85.000
69.46200 77.000
69.47900 76.000
69.49600 77.000
69.51300 76.000
69.53000 73.000
69.54700 66.000
69.56400 64.000
69.58100 77.000
69.59800 74.000
69.61500 77.000
69.63200 83.000
69.64900 81.000
69.66600 72.000
69.68300 72.000
69.70000 78.000
69.71700 77.000
69.73400 83.000
69.75100 70.000
69.76800 75.000
69.78500 87.000
69.80200 86.000
69.81900 101.000
69.83600 106.000
69.85300 106.000
69.87000 123.000
69.88700 128.000
69.90400 170.000
69.92100 169.000
69.93800 200.000
69.95500 225.000
69.97200 244.000
69.98900 226.000
70.00600 172.000
70.02300 158.000
70.04000 130.000
70.05700 111.000
70.07400 115.000
70.09100 90.000
70.10800 78.000
70.12500 86.000
70.14200 83.000
70.15900 82.000
70.17600 88.000
70.19300 84.000
70.21000 85.000
70.22700 74.000
70.24400 69.000
70.26100 72.000
70.27800 69.000
70.29500 72.000
70.31200 72.000
70.32900 70.000
70.34600 72.000
70.36300 70.000
70.38000 65.000
70.39700 67.000
70.41400 81.000
70.43100 86.000
70.44800 71.000
70.46500 76.000
70.48200 82.000
70.49900 77.000
70.51600 77.000
70.53300 69.000
70.55000 75.000
70.56700 85.000
70.58400 83.000
70.60100 84.000
70.61800 73.000
70.63500 94.000
70.65200 93.000
70.66900 107.000
70.68600 100.000
70.70300 101.000
70.72000 97.000
70.73700 121.000
70.75400 156.000
70.77100 171.000
70.78800 221.000
70.80500 277.000
70.82200 308.000
70.83900 359.000
70.85600 341.000
70.87300 308.000
70.89000 287.000
70.90700 237.000
70.92400 203.000
70.94100 193.000
70.95800 200.000
70.97500 212.000
70.99200 249.000
71.00900 299.000
71.02600 352.000
71.04300 423.000
71.06000 453.000
71.07700 462.000
71.09400 374.000
71.11100 320.000
71.12800 253.000
71.14500 189.000
71.16200 154.000
71.17900 147.000
71.19600 121.000
71.21300 111.000
71.23000 99.000
71.24700 106.000
71.26400 98.000
71.28100 94.000
71.29800 93.000
71.31500 98.000
71.33200 93.000
71.34900 97.000
71.36600 95.000
71.38300 97.000
71.40000 93.000
71.41700 89.000
71.43400 91.000
71.45100 82.000
71.46800 85.000
71.48500 89.000
71.50200 83.000
71.51900 77.000
71.53600 75.000
71.55300 66.000
71.57000 66.000
71.58700 73.000
71.60400 70.000
71.62100 71.000
71.63800 76.000
71.65500 72.000
71.67200 83.000
71.68900 80.000
71.70600 68.000
71.72300 68.000
71.74000 79.000
71.75700 68.000
71.77400 69.000
71.79100 63.000
71.80800 70.000
71.82500 64.000
71.84200 82.000
71.85900 69.000
71.87600 68.000
71.89300 66.000
71.91000 72.000
71.92700 73.000
71.94400 66.000
71.96100 69.000
71.97800 73.000
71.99500 73.000
72.01200 64.000
72.02900 63.000
72.04600 74.000
72.06300 68.000
72.08000 82.000
72.09700 64.000
72.11400 56.000
72.13100 60.000
72.14800 58.000
72.16500 53.000
72.18200 65.000
72.19900 68.000
72.21600 62.000
72.23300 71.000
72.25000 66.000
72.26700 65.000
72.28400 69.000
72.30100 69.000
72.31800 67.000
72.33500 70.000
72.35200 71.000
72.36900 66.000
72.38600 66.000
72.40300 79.000
72.42000 78.000
72.43700 67.000
72.45400 65.000
72.47100 78.000
72.48800 75.000
72.50500 63.000
72.52200 68.000
72.53900 61.000
72.55600 59.000
72.57300 65.000
72.59000 75.000
72.60700 75.000
72.62400 70.000
72.64100 91.000
72.65800 80.000
72.67500 83.000
72.69200 82.000
72.70900 94.000
72.72600 89.000
72.74300 96.000
72.76000 97.000
72.77700 106.000
72.79400 116.000
72.81100 122.000
72.82800 113.000
72.84500 116.000
72.86200 141.000
72.87900 163.000
72.89600 199.000
72.91300 264.000
72.93000 305.000
72.94700 362.000
72.96400 394.000
72.98100 397.000
72.99800 424.000
73.01500 361.000
73.03200 293.000
73.04900 248.000
73.06600 189.000
73.08300 172.000
73.10000 155.000
73.11700 134.000
73.13400 119.000
73.15100 108.000
73.16800 102.000
73.18500 104.000
73.20200 102.000
73.21900 86.000
73.23600 85.000
73.25300 90.000
73.27000 82.000
73.28700 83.000
73.30400 87.000
73.32100 83.000
73.33800 78.000
73.35500 70.000
73.37200 72.000
73.38900 76.000
73.40600 82.000
73.42300 80.000
73.44000 75.000
73.45700 76.000
73.47400 82.000
73.49100 83.000
73.50800 81.000
73.52500 85.000
73.54200 84.000
73.55900 85.000
73.57600 81.000
73.59300 90.000
73.61000 101.000
73.62700 104.000
73.64400 131.000
73.66100 120.000
73.67800 135.000
73.69500 135.000
73.71200 154.000
73.72900 146.000
73.74600 154.000
73.76300 147.000
73.78000 155.000
73.79700 139.000
73.81400 153.000
73.83100 182.000
73.84800 217.000
73.86500 246.000
73.88200 229.000
73.89900 243.000
73.91600 189.000
73.93300 182.000
73.95000 158.000
73.96700 123.000
73.98400 109.000
74.00100 99.000
74.01800 75.000
74.03500 108.000
74.05200 82.000
74.06900 95.000
74.08600 90.000
74.10300 86.000
74.12000 80.000
74.13700 79.000
74.15400 78.000
74.17100 86.000
74.18800 80.000
74.20500 78.000
74.22200 77.000
74.23900 77.000
74.25600 72.000
74.27300 63.000
74.29000 68.000
74.30700 75.000
74.32400 76.000
74.34100 72.000
74.35800 77.000
74.37500 74.000
74.39200 72.000
74.40900 78.000
74.42600 81.000
74.44300 80.000
74.46000 78.000
74.47700 83.000
74.49400 95.000
74.51100 92.000
74.52800 100.000
74.54500 118.000
74.56200 138.000
74.57900 143.000
74.59600 163.000
74.61300 199.000
74.63000 285.000
74.64700 259.000
74.66400 254.000
74.68100 253.000
74.69800 215.000
74.71500 201.000
74.73200 191.000
74.74900 178.000
74.76600 211.000
74.78300 230.000
74.80000 243.000
74.81700 240.000
74.83400 235.000
74.85100 210.000
74.86800 158.000
74.88500 141.000
74.90200 121.000
74.91900 99.000
74.93600 97.000
74.95300 84.000
74.97000 82.000
74.98700 78.000
75.00400 77.000
75.02100 77.000
75.03800 89.000
75.05500 82.000
75.07200 74.000
75.08900 77.000
75.10600 67.000
75.12300 67.000
75.14000 73.000
75.15700 75.000
75.17400 69.000
75.19100 74.000
75.20800 81.000
75.22500 74.000
75.24200 65.000
75.25900 65.000
75.27600 72.000
75.29300 67.000
75.31000 64.000
75.32700 58.000
75.34400 66.000
75.36100 71.000
75.37800 71.000
75.39500 65.000
75.41200 64.000
75.42900 65.000
75.44600 66.000
75.46300 56.000
75.48000 59.000
75.49700 55.000
75.51400 59.000
75.53100 63.000
75.54800 55.000
75.56500 62.000
75.58200 63.000
75.59900 58.000
75.61600 70.000
75.63300 65.000
75.65000 64.000
75.66700 64.000
75.68400 66.000
75.70100 73.000
75.71800 62.000
75.73500 59.000
75.75200 70.000
75.76900 70.000
75.78600 64.000
75.80300 62.000
75.82000 62.000
75.83700 64.000
75.85400 70.000
75.87100 69.000
75.88800 63.000
75.90500 81.000
75.92200 60.000
75.93900 58.000
75.95600 66.000
75.97300 76.000
75.99000 85.000
76.00700 75.000
76.02400 62.000
76.04100 65.000
76.05800 67.000
76.07500 66.000
76.09200 67.000
76.10900 63.000
76.12600 68.000
76.14300 65.000
76.16000 63.000
76.17700 71.000
76.19400 73.000
76.21100 75.000
76.22800 75.000
76.24500 70.000
76.26200 73.000
76.27900 77.000
76.29600 86.000
76.31300 87.000
76.33000 93.000
76.34700 98.000
76.36400 91.000
76.38100 86.000
76.39800 104.000
76.41500 108.000
76.43200 115.000
76.44900 130.000
76.46600 125.000
76.48300 126.000
76.50000 137.000
76.51700 122.000
76.53400 131.000
76.55100 148.000
76.56800 170.000
76.58500 195.000
76.60200 232.000
76.61900 280.000
76.63600 345.000
76.65300 411.000
76.67000 465.000
76.68700 450.000
76.70400 454.000
76.72100 418.000
76.73800 356.000
76.75500 281.000
76.77200 227.000
76.78900 200.000
76.80600 175.000
76.82300 146.000
76.84000 123.000
76.85700 109.000
76.87400 105.000
76.89100 103.000
76.90800 113.000
76.92500 117.000
76.94200 121.000
76.95900 145.000
76.97600 133.000
76.99300 137.000
77.01000 138.000
77.02700 119.000
77.04400 105.000
77.06100 99.000
77.07800 95.000
77.09500 92.000
77.11200 80.000
77.12900 91.000
77.14600 82.000
77.16300 84.000
77.18000 79.000
77.19700 77.000
77.21400 79.000
77.23100 78.000
77.24800 75.000
77.26500 76.000
77.28200 81.000
77.29900 91.000
77.31600 100.000
77.33300 96.000
77.35000 98.000
77.36700 118.000
77.38400 109.000
77.40100 93.000
77.41800 95.000
77.43500 101.000
77.45200 85.000
77.46900 82.000
77.48600 82.000
77.50300 85.000
77.52000 83.000
77.53700 72.000
77.55400 63.000
77.57100 72.000
77.58800 74.000
77.60500 75.000
77.62200 70.000
77.63900 52.000
77.65600 56.000
77.67300 64.000
77.69000 63.000
77.70700 66.000
77.72400 68.000
77.74100 59.000
77.75800 56.000
77.77500 74.000
77.79200 70.000
77.80900 62.000
77.82600 60.000
77.84300 69.000
77.86000 64.000
77.87700 65.000
77.89400 75.000
77.91100 65.000
77.92800 61.000
77.94500 61.000
77.96200 58.000
77.97900 65.000
77.99600 71.000
78.01300 62.000
78.03000 82.000
78.04700 83.000
78.06400 71.000
78.08100 70.000
78.09800 78.000
78.11500 76.000
78.13200 83.000
78.14900 82.000
78.16600 81.000
78.18300 90.000
78.20000 100.000
78.21700 113.000
78.23400 128.000
78.25100 143.000
78.26800 153.000
78.28500 161.000
78.30200 154.000
78.31900 148.000
78.33600 135.000
78.35300 120.000
78.37000 123.000
78.38700 134.000
78.40400 135.000
78.42100 155.000
78.43800 185.000
78.45500 214.000
78.47200 253.000
78.48900 270.000
78.50600 233.000
78.52300 227.000
78.54000 202.000
78.55700 150.000
78.57400 134.000
78.59100 111.000
78.60800 102.000
78.62500 101.000
78.64200 99.000
78.65900 101.000
78.67600 90.000
78.69300 83.000
78.71000 83.000
78.72700 83.000
78.74400 73.000
78.76100 78.000
78.77800 79.000
78.79500 67.000
78.81200 73.000
78.82900 69.000
78.84600 70.000
78.86300 75.000
78.88000 70.000
78.89700 74.000
78.91400 68.000
78.93100 72.000
78.94800 71.000
78.96500 64.000
78.98200 77.000
78.99900 73.000
79.01600 73.000
79.03300 72.000
79.05000 84.000
79.06700 87.000
79.08400 82.000
79.10100 82.000
79.11800 82.000
79.13500 94.000
79.15200 109.000
79.16900 119.000
79.18600 128.000
79.20300 135.000
79.22000 139.000
79.23700 142.000
79.25400 146.000
79.27100 149.000
79.28800 130.000
79.30500 108.000
79.32200 91.000
79.33900 95.000
79.35600 88.000
79.37300 70.000
79.39000 69.000
79.40700 78.000
79.42400 84.000
79.44100 79.000
79.45800 79.000
79.47500 77.000
79.49200 78.000
79.50900 69.000
79.52600 66.000
79.54300 71.000
79.56000 65.000
79.57700 67.000
79.59400 75.000
79.61100 63.000
79.62800 73.000
79.64500 62.000
79.66200 62.000
79.67900 77.000
79.69600 79.000
79.71300 72.000
79.73000 75.000
79.74700 83.000
79.76400 68.000
79.78100 69.000
79.79800 81.000
79.81500 76.000
79.83200 79.000
79.84900 78.000
79.86600 78.000
79.88300 76.000
79.90000 81.000
79.91700 80.000
79.93400 78.000
79.95100 76.000
79.96800 85.000
79.98500 98.000
80.00200 123.000
80.01900 133.000
80.03600 153.000
80.05300 181.000
80.07000 202.000
80.08700 239.000
80.10400 240.000
80.12100 230.000
80.13800 212.000
80.15500 189.000
80.17200 165.000
80.18900 147.000
80.20600 123.000
80.22300 110.000
80.24000 104.000
80.25700 100.000
80.27400 111.000
80.29100 106.000
80.30800 116.000
80.32500 120.000
80.34200 105.000
80.35900 103.000
80.37600 107.000
80.39300 98.000
80.41000 90.000
80.42700 84.000
80.44400 78.000
80.46100 71.000
80.47800 78.000
80.49500 75.000
80.51200 62.000
80.52900 63.000
80.54600 66.000
80.56300 76.000
80.58000 70.000
80.59700 72.000
80.61400 66.000
80.63100 70.000
80.64800 71.000
80.66500 79.000
80.68200 68.000
80.69900 73.000
80.71600 65.000
80.73300 62.000
80.75000 75.000
80.76700 74.000
80.78400 68.000
80.80100 67.000
80.81800 76.000
80.83500 79.000
80.85200 81.000
80.86900 79.000
80.88600 69.000
80.90300 76.000
80.92000 83.000
80.93700 86.000
80.95400 93.000
80.97100 101.000
80.98800 105.000
81.00500 115.000
81.02200 127.000
81.03900 131.000
81.05600 147.000
81.07300 154.000
81.09000 153.000
81.10700 146.000
81.12400 149.000
81.14100 167.000
81.15800 172.000
81.17500 177.000
81.19200 194.000
81.20900 224.000
81.22600 243.000
81.24300 245.000
81.26000 249.000
81.27700 246.000
81.29400 217.000
81.31100 181.000
81.32800 157.000
81.34500 140.000
81.36200 122.000
81.37900 120.000
81.39600 110.000
81.41300 96.000
81.43000 87.000
81.44700 92.000
81.46400 95.000
81.48100 92.000
81.49800 89.000
81.51500 80.000
81.53200 91.000
81.54900 79.000
81.56600 69.000
81.58300 64.000
81.60000 74.000
81.61700 71.000
81.63400 71.000
81.65100 78.000
81.66800 69.000
81.68500 77.000
81.70200 72.000
81.71900 66.000
81.73600 70.000
81.75300 73.000
81.77000 74.000
81.78700 76.000
81.80400 80.000
81.82100 78.000
81.83800 74.000
81.85500 68.000
81.87200 74.000
81.88900 80.000
81.90600 68.000
81.92300 69.000
81.94000 75.000
81.95700 78.000
81.97400 101.000
81.99100 96.000
82.00800 117.000
82.02500 147.000
82.04200 160.000
82.05900 182.000
82.07600 225.000
82.09300 286.000
82.11000 309.000
82.12700 303.000
82.14400 295.000
82.16100 272.000
82.17800 236.000
82.19500 184.000
82.21200 146.000
82.22900 130.000
82.24600 116.000
82.26300 95.000
82.28000 99.000
82.29700 101.000
82.31400 97.000
82.33100 89.000
82.34800 97.000
82.36500 114.000
82.38200 115.000
82.39900 112.000
82.41600 121.000
82.43300 111.000
82.45000 110.000
82.46700 103.000
82.48400 108.000
82.50100 102.000
82.51800 91.000
82.53500 84.000
82.55200 84.000
82.56900 77.000
82.58600 82.000
82.60300 75.000
82.62000 74.000
82.63700 70.000
82.65400 77.000
82.67100 74.000
82.68800 71.000
82.70500 63.000
82.72200 72.000
82.73900 71.000
82.75600 74.000
82.77300 77.000
82.79000 76.000
82.80700 80.000
82.82400 78.000
82.84100 63.000
82.85800 67.000
82.87500 80.000
82.89200 79.000
82.90900 70.000
82.92600 76.000
82.94300 77.000
82.96000 67.000
82.97700 70.000
82.99400 79.000
83.01100 69.000
83.02800 60.000
83.04500 62.000
83.06200 65.000
83.07900 73.000
83.09600 69.000
83.11300 74.000
83.13000 66.000
83.14700 69.000
83.16400 71.000
83.18100 71.000
83.19800 74.000
83.21500 74.000
83.23200 68.000
83.24900 78.000
83.26600 80.000
83.28300 80.000
83.30000 83.000
83.31700 78.000
83.33400 84.000
83.35100 92.000
83.36800 90.000
83.38500 85.000
83.40200 75.000
83.41900 81.000
83.43600 95.000
83.45300 96.000
83.47000 92.000
83.48700 104.000
83.50400 118.000
83.52100 123.000
83.53800 120.000
83.55500 141.000
83.57200 168.000
83.58900 166.000
83.60600 192.000
83.62300 235.000
83.64000 279.000
83.65700 352.000
83.67400 443.000
83.69100 504.000
83.70800 576.000
83.72500 588.000
83.74200 551.000
83.75900 471.000
83.77600 406.000
83.79300 326.000
83.81000 305.000
83.82700 248.000
83.84400 241.000
83.86100 241.000
83.87800 228.000
83.89500 259.000
83.91200 303.000
83.92900 328.000
83.94600 357.000
83.96300 334.000
83.98000 316.000
83.99700 273.000
84.01400 228.000
84.03100 208.000
84.04800 161.000
84.06500 132.000
84.08200 132.000
84.09900 128.000
84.11600 110.000
84.13300 106.000
84.15000 102.000
84.16700 103.000
84.18400 105.000
84.20100 95.000
84.21800 98.000
84.23500 100.000
84.25200 101.000
84.26900 102.000
84.28600 97.000
84.30300 88.000
84.32000 84.000
84.33700 83.000
84.35400 80.000
84.37100 81.000
84.38800 81.000
84.40500 86.000
84.42200 88.000
84.43900 92.000
84.45600 88.000
84.47300 98.000
84.49000 106.000
84.50700 107.000
84.52400 116.000
84.54100 134.000
84.55800 159.000
84.57500 170.000
84.59200 179.000
84.60900 202.000
84.62600 227.000
84.64300 253.000
84.66000 223.000
84.67700 214.000
84.69400 178.000
84.71100 177.000
84.72800 172.000
84.74500 193.000
84.76200 203.000
84.77900 226.000
84.79600 248.000
84.81300 254.000
84.83000 268.000
84.84700 252.000
84.86400 227.000
84.88100 163.000
84.89800 171.000
84.91500 150.000
84.93200 133.000
84.94900 110.000
84.96600 96.000
84.98300 95.000
85.00000 96.000
85.01700 96.000
85.03400 87.000
85.05100 102.000
85.06800 107.000
85.08500 106.000
85.10200 106.000
85.11900 107.000
85.13600 99.000
85.15300 92.000
85.17000 83.000
85.18700 75.000
85.20400 72.000
85.22100 79.000
85.23800 79.000
85.25500 80.000
85.27200 73.000
85.28900 66.000
85.30600 70.000
85.32300 73.000
85.34000 80.000
85.35700 78.000
85.37400 80.000
85.39100 70.000
85.40800 60.000
85.42500 75.000
85.44200 96.000
85.45900 92.000
85.47600 105.000
85.49300 124.000
85.51000 128.000
85.52700 132.000
85.54400 138.000
85.56100 170.000
85.57800 153.000
85.59500 127.000
85.61200 136.000
85.62900 108.000
85.64600 101.000
85.66300 86.000
85.68000 79.000
85.69700 79.000
85.71400 85.000
85.73100 68.000
85.74800 79.000
85.76500 66.000
85.78200 63.000
85.79900 76.000
85.81600 73.000
85.83300 71.000
85.85000 64.000
85.86700 72.000
85.88400 72.000
85.90100 72.000
85.91800 66.000
85.93500 72.000
85.95200 68.000
85.96900 74.000
85.98600 61.000
86.00300 65.000
86.02000 65.000
86.03700 65.000
86.05400 77.000
86.07100 75.000
86.08800 72.000
86.10500 68.000
86.12200 71.000
86.13900 70.000
86.15600 79.000
86.17300 83.000
86.19000 74.000
86.20700 74.000
86.22400 72.000
86.24100 75.000
86.25800 74.000
86.27500 72.000
86.29200 75.000
86.30900 80.000
86.32600 75.000
86.34300 75.000
86.36000 88.000
86.37700 100.000
86.39400 106.000
86.41100 112.000
86.42800 126.000
86.44500 123.000
86.46200 136.000
86.47900 132.000
86.49600 128.000
86.51300 135.000
86.53000 128.000
86.54700 104.000
86.56400 96.000
86.58100 87.000
86.59800 81.000
86.61500 90.000
86.63200 76.000
86.64900 71.000
86.66600 75.000
86.68300 58.000
86.70000 73.000
86.71700 67.000
86.73400 72.000
86.75100 75.000
86.76800 82.000
86.78500 93.000
86.80200 88.000
86.81900 83.000
86.83600 111.000
86.85300 139.000
86.87000 143.000
86.88700 142.000
86.90400 135.000
86.92100 121.000
86.93800 105.000
86.95500 96.000
86.97200 92.000
86.98900 81.000
87.00600 77.000
87.02300 81.000
87.04000 73.000
87.05700 61.000
87.07400 70.000
87.09100 71.000
87.10800 65.000
87.12500 57.000
87.14200 60.000
87.15900 68.000
87.17600 66.000
87.19300 62.000
87.21000 58.000
87.22700 59.000
87.24400 64.000
87.26100 68.000
87.27800 63.000
87.29500 62.000
87.31200 64.000
87.32900 66.000
87.34600 61.000
87.36300 62.000
87.38000 58.000
87.39700 59.000
87.41400 59.000
87.43100 56.000
87.44800 66.000
87.46500 63.000
87.48200 65.000
87.49900 50.000
87.51600 52.000
87.53300 70.000
87.55000 63.000
87.56700 61.000
87.58400 53.000
87.60100 60.000
87.61800 63.000
87.63500 55.000
87.65200 69.000
87.66900 60.000
87.68600 53.000
87.70300 68.000
87.72000 68.000
87.73700 59.000
87.75400 65.000
87.77100 62.000
87.78800 66.000
87.80500 60.000
87.82200 63.000
87.83900 66.000
87.85600 56.000
87.87300 64.000
87.89000 56.000
87.90700 64.000
87.92400 65.000
87.94100 64.000
87.95800 65.000
87.97500 61.000
87.99200 55.000
88.00900 56.000
88.02600 61.000
88.04300 58.000
88.06000 63.000
88.07700 68.000
88.09400 54.000
88.11100 48.000
88.12800 58.000
88.14500 63.000
88.16200 61.000
88.17900 57.000
88.19600 60.000
88.21300 71.000
88.23000 71.000
88.24700 66.000
88.26400 60.000
88.28100 58.000
88.29800 63.000
88.31500 63.000
88.33200 55.000
88.34900 53.000
88.36600 57.000
88.38300 61.000
88.40000 60.000
88.41700 59.000
88.43400 64.000
88.45100 64.000
88.46800 62.000
88.48500 63.000
88.50200 61.000
88.51900 65.000
88.53600 63.000
88.55300 55.000
88.57000 61.000
88.58700 63.000
88.60400 68.000
88.62100 74.000
88.63800 74.000
88.65500 58.000
88.67200 69.000
88.68900 63.000
88.70600 52.000
88.72300 61.000
88.74000 65.000
88.75700 60.000
88.77400 63.000
88.79100 62.000
88.80800 70.000
88.82500 64.000
88.84200 60.000
88.85900 67.000
88.87600 59.000
88.89300 66.000
88.91000 69.000
88.92700 51.000
88.94400 56.000
88.96100 64.000
88.97800 63.000
88.99500 69.000
89.01200 75.000
89.02900 77.000
89.04600 84.000
89.06300 84.000
89.08000 85.000
89.09700 92.000
89.11400 102.000
89.13100 99.000
89.14800 97.000
89.16500 108.000
89.18200 121.000
89.19900 125.000
89.21600 128.000
89.23300 149.000
89.25000 167.000
89.26700 193.000
89.28400 203.000
89.30100 211.000
89.31800 218.000
89.33500 204.000
89.35200 181.000
89.36900 165.000
89.38600 141.000
89.40300 118.000
89.42000 103.000
89.43700 108.000
89.45400 91.000
89.47100 96.000
89.48800 92.000
89.50500 108.000
89.52200 113.000
89.53900 116.000
89.55600 119.000
89.57300 128.000
89.59000 139.000
89.60700 139.000
89.62400 143.000
89.64100 130.000
89.65800 142.000
89.67500 127.000
89.69200 113.000
89.70900 100.000
89.72600 85.000
89.74300 84.000
89.76000 81.000
89.77700 86.000
89.79400 81.000
89.81100 81.000
89.82800 80.000
89.84500 69.000
89.86200 77.000
89.87900 74.000
89.89600 78.000
89.91300 84.000
89.93000 73.000
89.94700 75.000
89.96400 82.000
89.98100 96.000
